time,thrust,OF,ox_tank.pressure,ox_tank.temperature,combustion_chamber.temperature,propellant_mass,propellant_CG,combustion_chamber.fuel_grain.geometry.length_regressed
0.007,238.61856465997076,7.91421779731224,4595039.412158257,288.94860285772944,2796.5546921313935,51.66909696101162,1.9544963611253696,8.587599532365094e-06
0.014,889.9785125816762,7.506734969871841,4593864.851813368,288.9375916727534,2951.336953062255,51.63436700404606,1.9552618489402633,1.714919941726708e-05
0.021,1969.9927756321006,7.302576958477192,4592754.253771173,288.92717816012635,3008.324690199783,51.60144447520696,1.9559826892678676,2.5470044881290455e-05
0.028,2872.402635853339,7.123659628831714,4591704.367367633,288.91733215995083,3042.0225608949704,51.57023899739971,1.956661282341856,3.355616432174435e-05
0.035,3616.0305547784933,6.967391967616924,4590709.218226499,288.90799792402817,3064.6498343777293,51.54058355007775,1.957301876079644,4.142482574685924e-05
0.042,4224.885962081367,6.834002437798548,4589762.1936351545,288.89911366385763,3080.6334195436425,51.512292825032844,1.957909124367108,4.909724390460053e-05
0.049,4709.566607086315,6.722764686028458,4588856.58087994,288.8906166022909,3092.2881466952977,51.48517830413277,1.9584877175284465,5.659660176015838e-05
0.056,5079.934752467439,6.6319944284632815,4587985.913667702,288.88244622845355,3100.516003540977,51.459058026924815,1.9590421479305844,6.394657222736727e-05
0.063,5370.133826173597,6.559375692926252,4587144.2174791265,288.8745466061435,3106.6819513348582,51.43376356973888,1.959576546832161,7.117008734064828e-05
0.07,5596.148736259542,6.502290055875952,4586326.16226475,288.86686781347913,3111.3305720793956,51.40914444206611,1.9600945854744345,7.828840873156896e-05
0.07700000000000001,5751.398906117521,6.4581155521396925,4585527.134383969,288.8593666246596,3114.8292360180717,51.38507020941603,1.9605994312994799,8.532052298777498e-05
0.08400000000000002,5817.020135337109,6.424436228395274,4584743.241397553,288.8520065610226,3117.2987632783247,51.36143070881221,1.9610937493454805,9.228285445492264e-05
0.09100000000000003,5920.974271657223,6.399153963441593,4583971.2679764135,288.84475748247786,3119.0390141262915,51.338134863955716,1.961579736037255,9.918924294054434e-05
0.09800000000000003,6000.5579163933635,6.380494448271624,4583208.602209021,288.8375949001615,3120.349286106442,51.3151086435561,1.9620591721740388,0.0001060511086622672
0.10500000000000004,6061.280865273215,6.3670005979986914,4582453.152222702,288.83049919727364,3121.3341605513947,51.29229272890406,1.962533481679785,0.00011287771066868245
0.11200000000000004,6107.462017194298,6.357512986230209,4581703.262373722,288.82345484507005,3122.0780386311294,51.269640156782174,1.9630037899862116,0.00011967644684136854
0.11900000000000005,6142.463922457873,6.351116739845558,4580957.633741917,288.8164496585775,3122.625687464294,51.24711407584009,1.9634709789890012,0.00012645316344644074
0.12600000000000006,6168.890783488901,6.347098922039776,4580215.254304674,288.80947414262664,3123.033892764275,51.22468577190534,1.963935735078484,0.00013321244076811302
0.13300000000000006,6188.752695741602,6.344904881249409,4579475.339633506,288.8025209362403,3123.335864462816,51.20233298844631,1.9643985897853267,0.00013995784396632528
0.14000000000000007,6203.595439420764,6.3441072994594405,4578737.284329647,288.7955843575177,3123.556661137646,51.18003854981107,1.964859952979993,0.00014669213324907751
0.14700000000000008,6214.604815886369,6.344377654915106,4578000.622643467,288.78866003449656,3123.7154831233725,51.15778924408425,1.9653201397365943,0.00015341743717899815
0.15400000000000008,6222.688794251949,6.345463985787833,4577264.997125837,288.7817446112441,3123.827019426356,51.13557493340715,1.9657793916820225,0.0001601353922984518
0.1610000000000001,6228.541623204508,6.347173393647125,4576530.133948839,288.7748355164361,3123.902494537077,51.113387853391565,1.966237893780215,0.0001668472540160578
0.1680000000000001,6232.693565334055,6.349358388814976,4575795.823634825,288.7679307826211,3123.9504779711524,51.09122206599029,1.9666957874231596,0.00017355398374946206
0.1750000000000001,6235.549301264519,6.351906306691601,4575061.906100915,288.7610289059362,3123.9775079072774,51.06907303486862,1.9671531805804428,0.000180256316871979
0.1820000000000001,6237.4174813169075,6.354731143611357,4574328.259106105,288.7541287377246,3123.988570216497,51.04693729739716,1.9676101556327952,0.00018695481537940776
0.1890000000000001,6238.533405007679,6.357767280451563,4573594.789358198,288.747229401094,3123.987465607773,51.02481221217958,1.9680667753975265,0.00019364990853170863
0.19600000000000012,6239.076391496197,6.360964669224419,4572861.425686133,288.74033022684597,3123.9770905566043,51.0026957652428,1.9685230877512467,0.0002003419241099475
0.20300000000000012,6239.183063524898,6.36428514813032,4572128.11380861,288.73343070437846,3123.9596519953757,50.9805864215607,1.968979129169528,0.00020703111239465133
0.24300000000000013,6238.957494543016,6.367699624127426,4571394.812331827,288.72653044411874,3123.9368312297124,50.95848301148207,1.9694349274332554,0.00021371766452528426
0.28300000000000014,6230.317399827209,6.374264307294224,4567197.129298538,288.6870147633783,3123.7732679643773,50.83221581441643,1.9720368770718018,0.0002518902386669266
0.3230000000000001,6224.194976229652,6.3940521455324975,4562994.877585585,288.6474285992581,3123.5705912790554,50.70600484777863,1.9746341429733043,0.00028999920172610456
0.3630000000000001,6216.465105243168,6.416172984806023,4558789.281015756,288.60778336182676,3123.330886839616,50.579885021935006,1.9772258961713762,0.00032803925491298473
0.4030000000000001,6209.208202962848,6.437229083317482,4554579.425593209,288.56807031905555,3123.103983488711,50.45383117254266,1.9798127277390885,0.00036601479299355034
0.44300000000000006,6206.982121733528,6.458611156253995,4550365.561332316,288.528291706473,3122.7144120139906,50.327850839750795,1.9823944559820093,0.00040392493009123813
0.48300000000000004,6206.47330484555,6.480013872091327,4546147.609090426,288.4884466552888,3122.2726899169425,50.201942331857985,1.984971117111554,0.0004417702655173407
0.523,6206.094234729657,6.501424613197101,4541925.524827161,288.448534626134,3121.830763982438,50.07610495009037,1.9875427238327588,0.0004795512349421349
0.5630000000000001,6205.860963482153,6.522856648175922,4537699.290486959,288.4085553239325,3121.3885514919075,49.950338727536455,1.9901092716239988,0.0005172681532534445
0.6030000000000001,6205.775400418525,6.544317057386222,4533468.892477565,288.368508494953,3120.945884219763,49.824643825450124,1.9926707529802317,0.0005549213118988261
0.6430000000000001,6205.8412729739775,6.5658034899299,4529234.314916106,288.32839386294984,3120.5028115424525,49.6990203448305,1.9952271618347888,0.0005925110091546882
0.6830000000000002,6206.062302213456,6.587316779185132,4524995.542371664,288.28821115509,3120.0593157004305,49.573468402911026,1.9977784917640626,0.0006300375378971912
0.7230000000000002,6206.4423241945315,6.608857000381206,4520752.559174755,288.2479600954107,3119.6153943933896,49.447988113948625,2.000324736436664,0.0006675011887165307
0.7630000000000002,6206.985313362979,6.630424381571113,4516505.349561004,288.2076404061709,3119.1710422805777,49.322579593237506,2.0028658895185565,0.0007049022493105886
0.8030000000000003,6207.695377826327,6.652019122458831,4512253.897643799,288.16725180758357,3118.726254585005,49.19724295637043,2.0054019446893823,0.0007422410046384136
0.8430000000000003,6208.57676753776,6.6736414267172055,4507998.187418211,288.1267940178436,3118.2810264615346,49.071978319366764,2.0079328956385654,0.0007795177369345673
0.8830000000000003,6209.633879389306,6.6952914968011035,4503738.20275974,288.0862667531074,3117.8353530961913,48.94678579865788,2.010458736064746,0.0008167327257456835
0.9230000000000004,6210.871398082751,6.7169695347003255,4499473.927423775,288.0456697274782,3117.3884503352783,48.82166551109348,2.012979459674747,0.0008538862479631122
0.9630000000000004,6212.293774795825,6.738676454908621,4495205.345044953,288.00500265299115,3116.939244846278,48.69661757394538,2.0154950601826194,0.0008909785778554272
1.0030000000000003,6204.5940058221595,6.76041292858643,4490932.438683373,287.9642652352761,3116.376208978017,48.57164209250198,2.0180055315948104,0.0009280099890625257
1.0430000000000004,6193.538297958579,6.782212493544016,4486655.190754097,287.92345717285986,3115.7702865281112,48.44673915825741,2.0205108682489263,0.0009649807549022352
1.0830000000000004,6182.51607027928,6.804025302709338,4482373.562198793,287.88257795820664,3115.1641059392878,48.32190828039521,2.0230110778802337,0.001001891238080082
1.1230000000000004,6171.529428459883,6.82586445504791,4478087.534842149,287.8416272818121,3114.557435637568,48.197149544928074,2.025506154914006,0.0010387417075236587
1.1630000000000005,6160.575087319428,6.8477341793502795,4473797.092775864,287.80060485485626,3113.9501434527388,48.072463103624706,2.0279960922764504,0.0010755324193911782
1.2030000000000005,6149.653582159633,6.869633072592391,4469502.218625392,287.75951037354224,3113.342268234718,47.94784907207562,2.03048088373795,0.0011122636331886298
1.2430000000000005,6138.764461312726,6.891561697159172,4465202.895224508,287.71834353508046,3112.733794228776,47.82330757543817,2.0329605228606726,0.0011489356045811061
1.2830000000000006,6127.907460339246,6.913520187895141,4460899.105219027,287.6771040338916,3112.1247171304562,47.6988387376546,2.035435003245379,0.001185548587121597
1.3230000000000006,6117.08229107178,6.935508749496301,4456590.831135555,287.63579156225387,3111.515030838339,47.57444268334973,2.0379043184871373,0.001222102831980575
1.3630000000000007,6106.288670105279,6.957527577805163,4452278.055371539,287.59440581019766,3110.904729479436,47.4501195375869,2.040368462180177,0.0012585985880124698
1.4030000000000007,6095.526316467556,6.979576868651534,4447960.760195141,287.552946465494,3110.293807194821,47.325869425890545,2.042827427916634,0.0012950361017797095
1.4430000000000007,6084.794951422554,7.001656817562504,4443638.927744481,287.51141321363707,3109.6822581429296,47.201692474252745,2.045281209285681,0.0013314156175788837
1.4830000000000008,6074.094298548635,7.023767619595524,4439312.540026757,287.46980573782497,3109.0700765044357,47.07758880913657,2.0477297998727337,0.001367737377466959
1.5230000000000008,6063.424083673775,7.0459094694064035,4434981.578917378,287.42812371894104,3108.4572564802047,46.95355855748092,2.050173193258652,0.0014040016212868553
1.5630000000000008,6055.641065255127,7.06808256124373,4430646.02615911,287.3863668355348,3107.7321000753145,46.82960184670509,2.052611383018935,0.001440208586692662
1.6030000000000009,6047.910803027413,7.090308636976181,4426305.863361151,287.34453476380213,3107.0023986340593,46.70571880471336,2.0550443627229424,0.0014763585091744395
1.643000000000001,6040.188258529212,7.112550134455906,4421961.0587631455,287.30262704986,3106.272487736576,46.58190920643584,2.057472133889954,0.0015124516770123211
1.683000000000001,6032.466363952198,7.134827400536608,4417611.597038063,287.2606433970447,3105.5416997000916,46.45817327135643,2.0598946880021716,0.0015484883071948067
1.723000000000001,6024.746170463236,7.157136245343781,4413257.458676471,287.21858346727436,3104.8089417009146,46.33451111118013,2.0623120189757036,0.0015844686314735114
1.763000000000001,6017.025490824703,7.179479402061448,4408898.62468384,287.1764469263187,3104.073846152737,46.21092285557677,2.0647241203237163,0.0016203928768159053
1.803000000000001,6009.303923367422,7.201856334740817,4404535.074706034,287.1342334256697,3103.3379090077747,46.08740860233261,2.0671309862740768,0.0016562612731583798
1.843000000000001,6001.583780111324,7.224264814429309,4400166.788085464,287.091942612715,3102.6012271883587,45.96396844562457,2.069532611131531,0.0016920740490315367
1.8830000000000011,5993.86430023067,7.246706833101832,4395793.745416147,287.04957414579155,3101.86373429022,45.840602517216126,2.0719289883575596,0.0017278314252170807
1.9230000000000012,5986.145503575424,7.2691821525922515,4391415.9267573,287.00712767689726,3101.1254374255454,45.717310939019384,2.074320111632547,0.0017635336221203742
1.9630000000000012,5978.427286568177,7.291691034136258,4387033.312089471,286.964602856092,3100.3863280296528,45.594093835238354,2.07670597458341,0.0017991808579124631
2.003000000000001,5970.709556529985,7.314233667603806,4382645.881240281,286.9219993307664,3099.6463996808275,45.47095133043294,2.07908657082628,0.0018347733488515954
2.043000000000001,5962.9922222553405,7.336810246825672,4378253.613889478,286.87931674567864,3098.9056458744744,45.34788354968874,2.0814618939621337,0.0018703113092785884
2.083000000000001,5955.240681390309,7.3594209663948424,4373856.489568347,286.8365547429357,3098.122659243335,45.22489061863649,2.0838319375757894,0.0019057949516351395
2.123000000000001,5947.4531973958,7.382065332423538,4369454.487658183,286.793712961966,3097.2945826172263,45.101972663447576,2.086196695235444,0.0019412244864855201
2.163000000000001,5939.666848445158,7.404743586533707,4365047.587800761,286.75079104350596,3096.4656232440752,44.979129821600715,2.0885561602546003,0.0019766001208856693
2.203000000000001,5931.880849740118,7.427456749699294,4360635.769661477,286.70778862729276,3095.6357375975863,44.856362235647346,2.090910325830718,0.0020119220593673476
2.243000000000001,5924.095292908594,7.4502044879924325,4356219.01234481,286.66470534635334,3094.804937894797,44.733670037978754,2.0932591853804343,0.002047190506293789
2.2830000000000013,5916.310062210277,7.4729871080960955,4351797.294909289,286.62154083200556,3093.973213133261,44.6110533643483,2.095602732240286,0.002082405663802852
2.3230000000000013,5908.525071080132,7.495804783931896,4347370.59624322,286.578294712634,3093.140556921507,44.488512350658866,2.097940959737102,0.0021175677323195187
2.3630000000000013,5900.740232224224,7.518657704741804,4342938.895080554,286.53496661383093,3092.306962382893,44.36604713341456,2.1002738611775253,0.002152676910505776
2.4030000000000014,5892.955458159442,7.5415460594937525,4338502.169998848,286.4915561583633,3091.472422652908,44.24365784970781,2.102601429847805,0.0021877333952815
2.4430000000000014,5885.1706620141795,7.564470036357503,4334060.399417627,286.44806296614234,3090.6369309076395,44.12134463721523,2.104923659013381,0.0022227373818436897
2.4830000000000014,5877.385757281955,7.587429823354395,4329613.561597176,286.40448665419797,3089.8004803396807,43.999107634206275,2.1072405419182156,0.002257689063683509
2.5230000000000015,5869.600641934155,7.610425608201584,4325161.634637171,286.3608268366512,3088.961431251617,43.8769469795481,2.1095520717842007,0.002292588632603626
2.5630000000000015,5861.817494287409,7.633455252943721,4320704.596475323,286.3170831246865,3088.1203540390716,43.754862812711146,2.111858241810564,0.0023274362787351964
2.6030000000000015,5854.0219867835085,7.656521355032331,4316242.42624871,286.27325513991383,3087.2615751722687,43.63285530873855,2.1141590444155405,0.002362232185246129
2.6430000000000016,5846.191850090346,7.679621705583849,4311775.102197711,286.2293424937939,3086.354422696929,43.510924624298426,2.1164544724093464,0.002396976536567018
2.6830000000000016,5838.369188012434,7.702751933119881,4307302.603426361,286.18534480491985,3085.4465799321274,43.38907094289681,2.1187445180137314,0.0024316695115421017
2.7230000000000016,5830.543846795253,7.725925372710941,4302824.912037669,286.1412617200724,3084.537437523782,43.267294529189726,2.1210291716949246,0.0024663112752408363
2.7630000000000017,5822.718223592828,7.749134388278227,4298342.003886479,286.09709282318164,3083.6272928832827,43.14559549271581,2.123308427264326,0.002500902014774772
2.8030000000000017,5814.891914297897,7.772380795031238,4293853.856157288,286.05283770982794,3082.7160785288947,43.02397398203024,2.1255822776776907,0.002535441909859636
2.8430000000000017,5807.064837785649,7.795664607682143,4289360.445669069,286.0084959705496,3081.8037932693665,42.90243014137533,2.127850715971311,0.0025699311394021835
2.883000000000002,5799.236921075709,7.818986001358493,4284861.749068959,285.9640671927327,3080.8904305804635,42.78096411567682,2.1301137351536776,0.002604369880758762
2.923000000000002,5791.408078820384,7.842345168455157,4280357.742835503,285.9195509606281,3079.9759831693113,42.65957605067182,2.132371328202353,0.0026387583097317534
2.963000000000002,5783.57822899693,7.865742291176847,4275848.4032693235,285.87494685524246,3079.0604441488176,42.538266092718494,2.1346234880676502,0.002673096600613855
3.003000000000002,5775.747289507626,7.889177553442929,4271333.7064934075,285.8302544543252,3078.143806580424,42.41703438884903,2.1368702076711195,0.0027073849261953545
3.043000000000002,5767.915178527105,7.912651138708422,4266813.628451195,285.7854733323329,3077.22606355359,42.29588108677014,2.139111479905135,0.0027416234577791313
3.083000000000002,5760.081814515013,7.936163230130051,4262288.144904947,285.74060306039644,3076.307208180326,42.17480633486913,2.141347297632399,0.0027758123651946106
3.123000000000002,5752.236052829224,7.959714010595292,4257757.231434059,285.6956432062872,3075.3725400837166,42.053810282220425,2.143577653685427,0.0028099518168114568
3.163000000000002,5744.369774543875,7.983297064502558,4253220.863433337,285.65059333438296,3074.403575520355,41.932893078591746,2.145802540866052,0.002844041979553103
3.203000000000002,5736.5143125711575,8.00690904245669,4248679.019875088,285.60545304305595,3073.433983213726,41.812054968474996,2.1480219499578332,0.002878083004819442
3.243000000000002,5728.654036625136,8.030570483264073,4244131.683429022,285.5602219659984,3072.462787234816,41.69129629326751,2.1502358696966866,0.0029120750282363743
3.283000000000002,5720.7926021310495,8.054268978382332,4239578.826925753,285.5148996375549,3071.490490688927,41.57061715351176,2.152444293901638,0.002946018220265651
3.323000000000002,5712.92953071443,8.078007212633091,4235020.425318297,285.46948561153636,3070.5150042879973,41.45001770832238,2.1546472151354026,0.0029799127412979006
3.363000000000002,5705.063940881142,8.10178601456294,4230456.453107241,285.42397943561105,3069.537381027057,41.32949811105851,2.156844626064669,0.0030137587513126255
3.4030000000000022,5697.196417168165,8.12560438116703,4225886.884101882,285.37838064889104,3068.5585624783967,41.209058503522556,2.1590365195801366,0.003047556410753174
3.4430000000000023,5689.32709170132,8.149462630329227,4221311.692335575,285.3326887910387,3067.578539979412,41.0886990387435,2.161222888317453,0.0030813058771343893
3.4830000000000023,5681.455809601257,8.173361144574779,4216730.851776547,285.28690339937333,3066.5972981292834,40.96841987380342,2.1634037248085867,0.003115007306131297
3.5230000000000024,5673.582503389584,8.197300047879455,4212144.336145099,285.24102400702776,3065.61483219208,40.84822116536178,2.165579021575405,0.003148660852260436
3.5630000000000024,5665.707093943533,8.221279525894012,4207552.118966351,285.1950501434555,3064.631135041749,40.7281030710176,2.167748771100833,0.0031822666686891045
3.6030000000000024,5657.829502262853,8.245299757413502,4202954.1735608475,285.14898133431717,3063.6461998104646,40.60806574913342,2.1699129658322467,0.003215824907274139
3.6430000000000025,5649.9326895858885,8.269360920408221,4198350.47304245,285.1028171014393,3062.6378925189083,40.488109358841385,2.1720715981810756,0.003249335718573329
3.6830000000000025,5642.038216778318,8.293445725923453,4193740.990316554,285.0565569627764,3061.615372139525,40.368234060056935,2.1742246605222486,0.003282799251855557
3.7230000000000025,5634.147123692541,8.31757383750347,4189125.7078252877,285.0102005303126,3060.5915701701438,40.24844025115495,2.1763721402842497,0.0033162156198633407
3.7630000000000026,5626.25163651328,8.341748871438615,4184504.601800115,284.96374735208065,3059.566233363952,40.128728183523805,2.178514027940615,0.003349584956090911
