time,thrust,OF,ox_tank.pressure,ox_tank.temperature,combustion_chamber.temperature,propellant_mass,propellant_CG,combustion_chamber.fuel_grain.geometry.length_regressed
0.007,247.80995671616438,4.129281117165256,4570319.902931567,288.7164141922798,2786.675844860689,49.80135696598697,2.0669862279688966,1.4762845533396983e-05
0.014,1183.3533014155628,3.8623144922333412,4569083.355138722,288.70477449717185,2825.1546740186354,49.763754361389275,2.067642511362515,2.9448605717568354e-05
0.021,2446.593631578537,3.797026410124704,4567933.251012122,288.69394636615306,2828.6485075716414,49.728675522618396,2.0682495478255594,4.336223582456616e-05
0.028,3445.993499908495,3.7466889470195217,4566862.484867358,288.6838633449026,2823.1551407407073,49.695917413281336,2.0688115936899045,5.655470703715501e-05
0.035,4220.004796380237,3.7083984895595297,4565861.0796732735,288.67443185553014,2815.0038670343747,49.665192784858895,2.069334463056773,6.910534332525082e-05
0.042,4814.271675639628,3.681246476513091,4564918.491209207,288.6655528901833,2807.12661831556,49.63619666741815,2.0698242227396055,8.110224361095724e-05
0.049,5264.136457921365,3.6635551000908344,4564024.4119793,288.65712959140603,2801.9421470860093,49.608629750139514,2.070286745792729,9.26349303302185e-05
0.056,5601.709955692668,3.6531424375286976,4563169.355426961,288.64907276762506,2799.099923332309,49.58221561534832,2.070727395491334,0.00010378840155992346
0.063,5853.1716255137535,3.6479975064509924,4562345.038149365,288.64130450752754,2798.0385064297457,49.556712210978574,2.071150825649592,0.00011463874187600238
0.07,6039.355041947472,3.646416299772421,4561544.5086649135,288.63375940634893,2798.20073821102,49.531915932891664,2.0715609219783424,0.0001252510727008316
0.07700000000000001,6176.517762397438,3.6471081682925743,4560762.119668249,288.6263843158764,2799.1254978996008,49.50766107372214,2.0719608282725135,0.0001356791170498346
0.08400000000000002,6277.141137172509,3.649180043983906,4559993.4014993105,288.61913716151383,2800.492947871476,49.48381630063884,2.072353024572008,0.00014596589806919395
0.09100000000000003,6350.686557127402,3.6520546240275773,4559234.888159372,288.61198531004356,2802.099430828807,49.46027966959894,2.07273942895847,0.00015614507464491092
0.09800000000000003,6410.391430123797,3.6553788609818016,4558483.93407727,288.6049038483134,2803.81554251404,49.4369733135256,2.073121502385141,0.00016624250719962045
0.10500000000000004,6454.573594705057,3.658931281526521,4557738.544067871,288.59787398468706,2805.5719197468516,49.41383848177569,2.0735003447461473,0.00017627779199851613
0.11200000000000004,6486.793874019326,3.662612948284547,4556997.230057371,288.59088170157423,2807.341126953799,49.39083134456302,2.0738767752210046,0.00018626559494313864
0.11900000000000005,6510.200727840706,3.666360921819679,4556258.886861228,288.5839165865831,2809.1069127650426,49.36791934587211,2.0742514014774485,0.00019621683507555404
0.12600000000000006,6527.1271006076895,3.6701410323500756,4555522.697571496,288.5769709421113,2810.862761766326,49.3450784212842,2.0746246722070762,0.0002061395974844193
0.13300000000000006,6538.168912794589,3.6739356701406907,4554788.060590521,288.5700390985085,2812.6063553996933,49.32229085007073,2.07499691752723,0.00021603984396603634
0.14000000000000007,6545.735169735939,3.6777387953431235,4554054.534085118,288.56311689111965,2814.340656022869,49.29954361901139,2.075368379670294,0.00022592195751045642
0.14700000000000008,6551.049149300148,3.6815435476249814,4553321.79367199,288.5562012618205,2816.0663084672537,49.276827175546465,2.0757392363197424,0.00023578915889739096
0.15400000000000008,6554.721399480255,3.685347590424984,4552589.60196276,288.54928997220776,2817.7847682010583,49.25413453009453,2.076109617389045,0.0002456438074368363
0.1610000000000001,6557.197467720956,3.689150552027856,4551857.785550838,288.5423813868351,2819.4977022749167,49.23146057772978,2.0764796176846407,0.00025548762864733524
0.1680000000000001,6558.802299770894,3.69295252059915,4551126.217869004,288.53547431172075,2821.2064932750436,49.20880159294815,2.07684930632904,0.0002653218840407309
0.1750000000000001,6559.772785443313,3.6967537641206847,4550394.806596097,288.5285678756954,2822.91224466159,49.186154858556286,2.077218733677733,0.000275147495929198
0.1820000000000001,6560.281566614156,3.7005545875787633,4549663.484424269,288.52166144340083,2824.615812887328,49.16351839363905,2.0775879363867436,0.00028496513895057965
0.22200000000000011,6560.4544326161895,3.7043552725227404,4548932.202301749,288.5147545516079,2826.3178508412507,49.140890754511695,2.077956941118998,0.0002947753070507116
0.2620000000000001,6551.87190002745,3.711627250308131,4544746.12567157,288.47520131328963,2829.5349827887994,49.01165835992593,2.0800635248213726,0.0003507398926295621
0.3020000000000001,6544.891852708833,3.7334219279882,4540555.104593044,288.43557381010265,2838.4889345002707,48.882531598429374,2.0821670050133974,0.00040652270894169277
0.3420000000000001,6540.368217447215,3.7538594009598714,4536359.606903365,288.3958763314255,2845.901963147297,48.75352405679257,2.0842670961580163,0.00046212074817577817
0.38200000000000006,6532.541026125659,3.7771578174847114,4532161.539805409,288.3561268119368,2854.3406992283913,48.624690998928806,2.0863627440747976,0.0005175171988481899
0.42200000000000004,6526.668065284314,3.798109181751343,4527959.137178588,288.3163084189497,2861.9341217472283,48.49598089805578,2.0884548701285937,0.0005727307508546725
0.462,6519.12078851229,3.820954504559325,4523753.758093293,288.27643391532575,2870.2063934880525,48.36743296887529,2.090542719280275,0.0006277499433708047
0.502,6513.250320724777,3.84236089342263,4519544.338711329,288.2364931019862,2877.9606959777625,48.23901623023593,2.092626833018479,0.0006825865397200451
0.542,6506.47555206804,3.8649617667268568,4515331.725894387,288.19649389978963,2886.1424148699953,48.1107549744954,2.094706733802012,0.0007372340197599516
0.5820000000000001,6500.782676462874,3.886681449153818,4511115.268977094,288.15643001763016,2894.0066625658724,47.98263027146054,2.0967827410935733,0.000791700087089967
0.6220000000000001,6494.635191969004,3.9091606146171762,4506895.49333867,288.11630633294067,2902.1420379081183,47.854657089169514,2.098854550783847,0.0008459812784362823
0.6620000000000001,6489.217925198892,3.93110167055427,4502671.9985296605,288.0761189243031,2910.0831912391836,47.72682377641935,2.1009223488269715,0.000900082841276112
0.7020000000000002,6483.611626704687,3.953533736446977,4498445.113237413,288.03587080438376,2918.199083142996,47.59913962390661,2.102985936870277,0.0009540031495585068
0.7420000000000002,6478.5268975832705,3.975640514701304,4494214.590094345,287.99555950332973,2926.197161649714,47.47159742447785,2.105045419845177,0.0010077459434977673
0.7820000000000003,6473.411193497845,3.998071743756343,4489980.63671304,287.95518688418554,2934.310223220404,47.34420299332256,2.107100664351264,0.0010613107020394307
0.8220000000000003,6468.6930268225915,4.02031061800424,4485743.099903653,287.9147513711436,2942.3531711496535,47.216951853975836,2.1091517259494994,0.001114700229488284
0.8620000000000003,6461.793473358379,4.04277007338759,4481502.112221538,287.87425411339694,2949.1539472794225,47.08984768112954,2.1111985114799103,0.0011679146684765627
0.9020000000000004,6453.33960009035,4.065648127571975,4477257.578715156,287.8336940885565,2955.591041984331,46.962887687075764,2.113241046333982,0.0012209562337963194
0.9420000000000004,6445.058943305099,4.088143397179798,4473009.032788425,287.79306671606463,2961.918946740631,46.836058606692646,2.1152795469561454,0.0012738304785813322
0.9820000000000004,6436.609191909019,4.110844036601301,4468756.576960869,287.7523728502703,2968.3023043749236,46.709363342657106,2.117313934944534,0.001326537719215063
1.0220000000000005,6428.27305814727,4.133450355303314,4464500.11671977,287.7116114603573,2974.657972058927,46.582799235260325,2.1193442336074417,0.00137908004179457
1.0620000000000005,6419.843032366099,4.156200056085457,4460239.724939638,287.67078311714795,2981.051976484346,46.45636835933885,2.1213703804479382,0.0014314579976548428
1.1020000000000005,6411.474598308052,4.178917376985312,4455975.351570707,287.62988721373523,2987.435534368272,46.330069333550504,2.1233923761757505,0.0014836732277921424
1.1420000000000006,6403.052388360747,4.201734557323484,4451707.037822817,287.5889240175126,2993.845343228694,46.203903351505254,2.1254101750950314,0.0015357265353001506
1.1820000000000006,6394.663079713643,4.224553309860585,4447434.756539309,287.54789313973043,3000.2541468987597,46.077869695100986,2.127423766542463,0.0015876193167228196
1.2220000000000006,6386.2425545107535,4.2474478951861006,4443158.531099469,287.5067946762987,3006.682538116589,45.95196907009951,2.12943311439829,0.0016393525007549978
1.2620000000000007,6377.883278777158,4.270363332265658,4438878.346792386,287.46562835683704,3013.1149905288785,45.826201124370996,2.1314382020275744,0.001690927336679453
1.3020000000000007,6369.695116638388,4.2933413347386145,4434594.216927079,287.4243941798775,3019.5622183817827,45.70056629548885,2.133438998849015,0.001742344809148183
1.3420000000000007,6361.551038736687,4.316351425545488,4430306.13366244,287.3830919400698,3026.016891142916,45.5750644389468,2.1354354851158575,0.0017936060722551358
1.3820000000000008,6355.813430141609,4.339418093379922,4426014.104528981,287.3417215795956,3031.659552385526,45.449695844973554,2.137427633557427,0.001844712128938337
1.4220000000000008,6352.195528341724,4.362884325048399,4421718.124203205,287.3002829163448,3036.494002172998,45.324460454157,2.1394154235106995,0.0018956640781848577
1.4620000000000009,6348.364651834714,4.3863068729402155,4417417.839511985,287.258772408576,3041.315316276954,45.19934861833531,2.141399006652359,0.0019464660001022652
1.502000000000001,6344.6859476564105,4.409570961884184,4413113.083027358,287.21718829903597,3046.1028247597933,45.07435588508307,2.1433784409869316,0.001997120316509507
1.542000000000001,6340.992279280445,4.433010324060183,4408803.936352094,287.17553123349865,3050.9242274665826,44.94948468830827,2.145353661141689,0.00204762728242036
1.582000000000001,6337.404687315591,4.456413099995086,4404490.336545753,287.1338004606656,3055.7367063631373,44.82473348621936,2.147324673291888,0.0020979883806209808
1.622000000000001,6333.841021989229,4.479928014916749,4400172.321986344,287.0919962081742,3060.5703185726434,44.70010353078058,2.1492914338541382,0.002148204211825263
1.662000000000001,6330.3579619165885,4.503452920605006,4395849.860991239,287.0501180251873,3065.4044337108803,44.575594157619605,2.151253933778068,0.002198275960139759
1.702000000000001,6326.917107937194,4.527059157261443,4391522.9697847525,287.0081659240828,3070.253455400656,44.45120602190479,2.1532121407009948,0.0022482043886793146
1.742000000000001,6323.545167656383,4.550698068151715,4387191.631229361,286.9661395933362,3075.1075667307855,44.32693887325494,2.155166038664758,0.002297990529178275
1.7820000000000011,6320.22433170687,4.5744039561223975,4382855.85078888,286.9240389399258,3079.9736871830946,44.20279308495897,2.1571156008460095,0.00234763520933826
1.8220000000000012,6316.967263123942,4.598153791344647,4378515.61801099,286.8818637157193,3084.847175126908,44.07876860337596,2.1590608082581957,0.002397139377241212
1.8620000000000012,6313.765823736188,4.621964151272418,4374170.933033571,286.8396137747525,3089.7313716275894,43.95486566944639,2.1610016369161,0.0024465038793238035
1.9020000000000012,6308.646639712598,4.645824260888276,4369821.788355821,286.797288896144,3093.631578483691,43.831084323352854,2.1629380666279925,0.0024957296128284723
1.9420000000000013,6301.860677938024,4.670207021644345,4365468.181375729,286.75488890596273,3097.0655742214885,43.707424744466465,2.1648700749616343,0.0025448174216964724
1.9820000000000013,6295.079558446882,4.694309999326492,4361109.670948963,286.71240935385146,3100.4574500504127,43.583875315962594,2.1667978478159995,0.002593771730721071
2.022000000000001,6288.268953495811,4.718510639189285,4356746.247487833,286.669849986798,3103.8610646100824,43.460436109891994,2.168721364248777,0.0026425933750706247
2.062000000000001,6281.475892082907,4.742745452230226,4352377.865727587,286.6272102025127,3107.267777736759,43.33710624904879,2.1706406202140696,0.0026912834678762556
2.102000000000001,6274.662893579453,4.767063528697925,4348004.513686717,286.58448972199193,3110.68270707841,43.21388576127602,2.1725555958646563,0.0027398428363444548
2.1420000000000012,6267.927850865475,4.7913761230352,4343626.158786974,286.5416880638196,3114.0952218879675,43.090774131890186,2.174466281053347,0.0027882724619212183
2.1820000000000013,6261.199488487534,4.815794757047075,4339242.835327099,286.49880539949015,3117.521040629836,42.96777264032462,2.176372634325847,0.0028365727742419144
2.2220000000000013,6254.500600083716,4.840258297942056,4334854.52450107,286.45584138074867,3120.9516488356358,42.84488115109835,2.1782746392776717,0.0028847446223395938
2.2620000000000013,6247.815015046465,4.864794039507195,4330461.224841764,286.4127958280858,3124.3907761630026,42.72209999770786,2.1801722714654708,0.0029327887047423066
2.3020000000000014,6241.15221097524,4.889385170977881,4326062.923057733,286.3696684453103,3127.836119662627,42.59942920531604,2.182065512020794,0.0029807058040558993
2.3420000000000014,6234.505942356272,4.914042788520379,4321659.612778028,286.32645900311473,3131.289195656046,42.47686898944374,2.183954338921283,0.0030284966369555732
2.3820000000000014,6226.655505759857,4.938760713305458,4317251.283004827,286.2831672258851,3134.422895122267,42.35441944932683,2.185838732344238,0.0030761619464817667
2.4220000000000015,6215.084560902716,4.963737100361579,4312837.925242948,286.2397928616176,3136.6495931562667,42.23208075684025,2.1877186713671932,0.0031237024455028828
2.4620000000000015,6202.9423149432505,4.989085487863643,4308419.356303745,286.19633393852166,3138.9024270937284,42.10984849747841,2.18959421476304,0.0031711202042592943
2.5020000000000016,6191.241033359283,5.0139356925629714,4303995.166191166,286.1527862452352,3141.1111396707006,41.98771234837927,2.191465523291148,0.0032184190310225592
2.5420000000000016,6179.38393518796,5.039159188624747,4299565.553134114,286.1091515509707,3143.350988942357,41.865678002519424,2.1933324798865366,0.0032655979520323486
2.5820000000000016,6167.695200948437,5.064283173323409,4295130.3887369465,286.06542840902176,3145.58120256858,41.7437425801058,2.19519511618593,0.003312658536696458
2.6220000000000017,6155.997606295587,5.089568097956036,4290689.723226742,286.0216171309805,3147.8242266675798,41.62190789078578,2.1970533828229435,0.003359600954114855
2.6620000000000017,6144.386637454874,5.114872002652393,4286243.508874835,285.9777170616724,3150.067827950655,41.500173188078016,2.198907274729461,0.0034064261238627197
2.7020000000000017,6132.809825578105,5.140273198654102,4281791.750976194,285.9337280678445,3152.318747115132,41.378539116775144,2.2007567629699123,0.003453134546495287
2.7420000000000018,6121.294797088257,5.165729712027822,4277334.425625304,285.88964972676666,3154.573368099567,41.25700556743338,2.202601831729649,0.003499726938248009
2.782000000000002,6109.82593389073,5.191265103366088,4272871.524391549,285.8454817674104,3156.8337148073997,41.135572839794634,2.204442458283933,0.0035462038876379444
2.822000000000002,6098.410924870483,5.216867315197451,4268403.030102246,285.8012238310901,3159.0986933115023,41.01424101339716,2.206278623812963,0.0035925660410775816
2.862000000000002,6089.743583293096,5.242543623055025,4263928.929939558,285.7568756009874,3161.05704001338,40.89301028728807,2.208110307569139,0.0036388140030261906
2.902000000000002,6086.703684556133,5.268494029050412,4259449.208360163,285.7124367320479,3162.366601949943,40.77188079675075,2.209937490014413,0.0036849483899233254
2.942000000000002,6083.384141017133,5.2947037395231105,4254963.6774537135,285.6679051660314,3163.683807826155,40.65084826012426,2.211760226889553,0.0037309710994055767
2.982000000000002,6080.262172204313,5.32058015428898,4250472.0375848375,285.62327772749256,3164.9842513510093,40.52990557687449,2.2135786214477946,0.0037768848342109307
3.022000000000002,6077.17595924061,5.346733493553063,4245974.4119261475,285.5785554365831,3166.2974142546864,40.40905651972501,2.2153925918089485,0.0038226891166401396
3.062000000000002,6074.201417316262,5.372869006878919,4241470.716195481,285.53373725117797,3167.6090151727713,40.288299547314274,2.2172021465808323,0.0038683850116590485
3.102000000000002,6071.305784768597,5.399126727657853,4236960.963599411,285.48882309692294,3168.9258333241914,40.16763562100013,2.2190072519671586,0.003913972849982667
3.142000000000002,6068.506377022595,5.425441539756525,4232445.1211941345,285.44381243882253,3170.2447117705806,40.04706453034955,2.220807894131403,0.00395945329673345
3.182000000000002,6065.797634624813,5.451844719067273,4227923.177232551,285.39870495147,3171.567161202989,39.92658661252025,2.2226040500598323,0.004004826852359019
3.222000000000002,6063.184514515484,5.478322421996717,4223395.109702769,285.35350020566887,3172.8925078058082,39.80620195071538,2.224395701118454,0.0040500940850330455
3.2620000000000022,6060.6672770538,5.504881851980832,4218860.900970259,285.3081978143652,3174.221096487877,39.68591074650108,2.226182826762785,0.004095255523006941
3.3020000000000023,6058.248389979249,5.531520435292681,4214320.530986668,285.26279736487885,3175.552798918017,39.56571314751616,2.227965407440253,0.004140311704462605
3.3420000000000023,6051.406610341568,5.558240128234537,4209773.980426425,285.21729845019803,3176.2940986974595,39.445609326926004,2.2297434232505453,0.004185263154678091
3.3820000000000023,6043.138089218717,5.585439870760074,4205221.22924152,285.171700654518,3176.9098548915126,39.325599446933786,2.2315168545563964,0.004230110396612952
3.4220000000000024,6034.973534027645,5.612338340523897,4200661.930675153,285.12600028433513,3177.51802283396,39.20567549672262,2.233285818066917,0.00427485628413223
3.4620000000000024,6026.784712936961,5.639423907377073,4196096.139158282,285.08019766012,3178.129937463141,39.085839565292,2.235050261503137,0.004319500768123639
3.5020000000000024,6018.619624470293,5.666556577992338,4191523.8047994734,285.0342920553108,3178.7425099263746,38.9660911321318,2.2368101762323955,0.004364044541488473
3.5420000000000025,6010.459473725545,5.693789717917115,4186944.915529275,284.98828312089904,3179.354896210716,38.84643063125706,2.238565537774468,0.00440848801925451
3.5820000000000025,6002.308377901402,5.72110592278543,4182359.4440990076,284.94217035375453,3179.967506562365,38.72685812530252,2.2403163278900298,0.00445283171744476
3.6220000000000026,5994.166485310677,5.748508731509633,4177767.366585522,284.8959532823072,3180.5816077270106,38.607373767953206,2.242062526881973,0.004497076121156587
3.6620000000000026,5986.035281568315,5.775997400442331,4173168.659030598,284.8496314328072,3181.1971982449345,38.487977719954856,2.2438041149921237,0.004541221708617353
3.7020000000000026,5977.913877638128,5.803574329005401,4168563.298420254,284.80320433918763,3181.8143257282995,38.36867017325428,2.245541072002757,0.004585268944441357
3.7420000000000027,5969.802367359441,5.831239297070595,4163951.2608861607,284.75667152493685,3182.432982098338,38.249451306443504,2.2472733779713794,0.004629218292340274
3.7820000000000027,5955.861118448639,5.858993185606069,4159332.5224830844,284.7100325109043,3182.655712834169,38.13032130405529,2.2490010129101763,0.004673070209718066
3.8220000000000027,5939.710873422837,5.887077755576898,4154707.0588832246,284.6632868121938,3182.738817826948,38.01128034906297,2.2507239569076707,0.004716825149856332
3.8620000000000028,5923.781127619099,5.915059144918581,4150074.655071853,284.61643201248506,3182.820859973595,37.892323967935795,2.252442266178138,0.004760484869894359
