time,thrust,OF,ox_tank.pressure,ox_tank.temperature,combustion_chamber.temperature,propellant_mass,propellant_CG,combustion_chamber.fuel_grain.geometry.length_regressed
0.007,248.8287036946227,4.132702433105082,5191822.596477566,294.28576569630724,2644.0857152777994,54.01561564151447,1.873462044394884,1.6308039367716806e-05
0.014,1128.9578485105624,3.9197828823693857,5190499.195541662,294.27446345642636,2694.7937520780706,53.97701963821884,1.874235663377855,3.2539305142373075e-05
0.021,2358.591260175016,3.8730963398502687,5189250.580838196,294.26379787171317,2705.326691074967,53.94051702354895,1.8749623524469292,4.8078132066518396e-05
0.028,3351.6340600163176,3.838046566359272,5188070.140715901,294.25371280624245,2706.124388321589,53.905925949394465,1.875646412382117,6.297680072154158e-05
0.035,4135.887167802102,3.8115645006121945,5186949.185494218,294.24413430755067,2704.420867958091,53.873006125858296,1.8762933801347086,7.730874005718924e-05
0.042,4728.77839484539,3.792603454543127,5185878.870945408,294.2349870379419,2702.5449394133266,53.841512155185455,1.8769088366400315,9.115131604402454e-05
0.049,5200.281119009423,3.7799339227918543,5184850.762584773,294.226199103251,2701.261588990456,53.81120932127092,1.8774980645882107,0.00010458037072817768
0.056,5563.874472595638,3.7722433080136746,5183857.181600394,294.21770501815047,2700.731051808415,53.781883398989095,1.8780658443227258,0.00011766652302022576
0.063,5846.0261390287515,3.768316601286089,5182891.395261694,294.20944734299576,2700.870860613669,53.753346161112226,1.8786163464389303,0.00013047283643689736
0.07,6059.2903973448265,3.7671067297943313,5181947.677093736,294.2013772071069,2701.5309747590645,53.72543723714526,1.879153103696225,0.0001430537473583709
0.07700000000000001,6221.490402502999,3.7678209445360293,5181021.280598511,294.193454092024,2702.563472174031,53.69802352014965,1.879679034430758,0.00015545490841319072
0.08400000000000002,6345.343226918541,3.769830455366529,5180108.346599332,294.1856450459935,2703.838803465336,53.6709966738151,1.8801965047894964,0.00016771378035639167
0.09100000000000003,6451.859178182439,3.7727154402654923,5179205.794990851,294.1779237638375,2705.2641102432203,53.64427016553833,1.8807073989150036,0.00017986047379925076
0.09800000000000003,6530.285462047635,3.776161843937643,5178311.198466862,294.17026951149313,2706.7777501636074,53.61777576535832,1.8812131987738325,0.00019191884584271595
0.10500000000000004,6583.316838781733,3.7800082399970316,5177422.669375279,294.16266616178393,2708.346163875493,53.591460393092476,1.8817150550149389,0.00020390752498451959
0.11200000000000004,6623.118718636225,3.784131457917777,5176538.744706989,294.155101213297,2709.9518210312012,53.565282900626755,1.8822138581945709,0.00021584099280880405
0.11900000000000005,6652.90104047151,3.788432198502528,5175658.2960397415,294.1475650220047,2711.574479913786,53.539211547331874,1.8827102943531677,0.0002277304440666708
0.12600000000000006,6675.104731958298,3.7928548080574633,5174780.459979549,294.1400502077065,2713.2046916700315,53.513222047006806,1.8832048878314784,0.00023958445884564753
0.13300000000000006,6691.581688114369,3.797362208469607,5173904.578298878,294.13255114299693,2714.837569594719,53.48729588544008,1.8836980379704866,0.00025140958709645713
0.14000000000000007,6703.734242580941,3.801929515415256,5173030.150586255,294.12506354895294,2716.4722594548616,53.46141898871042,1.8841900480753078,0.0002632108139791184
0.14700000000000008,6712.623557006383,3.8065397913438557,5172156.797217537,294.11758417889337,2718.1074611040776,53.43558068134313,1.8846811480243224,0.0002749919254154298
0.15400000000000008,6719.05156854561,3.8111813711631726,5171284.230669706,294.1101105733435,2719.742598649271,53.40977287900375,1.8851715117586203,0.0002867557921669338
0.1610000000000001,6723.623862029131,3.8158460963254694,5170412.233442751,294.1026408714137,2721.3774739741875,53.38398946710144,1.8856612707259321,0.00029850458893232733
0.1680000000000001,6726.797488119214,3.820528185089955,5169540.641159176,294.0951736663907,2723.0120770211747,53.35822582512268,1.8861505241608612,0.0003102399622894711
0.1750000000000001,6728.917247768015,3.8252234914223213,5168669.329677061,294.0877078956057,2724.6464823006545,53.3324784639527,1.8866393469165375,0.00032196315885744427
0.1820000000000001,6730.243176598433,3.829929011868933,5167798.2052918775,294.08024275668816,2726.280794465136,53.30674475016476,1.88712779541421,0.0003336751227770928
0.1890000000000001,6730.971335924967,3.834642552170781,5166927.197303172,294.0727776440223,2727.915121194663,53.28102269688872,1.8876159121534948,0.00034537656967073094
0.19600000000000012,6731.249524764772,3.8393624982021737,5166056.252384412,294.0653121006123,2729.5495609145423,53.25531080544603,1.8881037291261107,0.00035706804265150504
0.23600000000000013,6731.189144650887,3.8440876561311264,5165185.33032396,294.057845781664,2731.184198302771,53.22960794557824,1.8885912703965821,0.0003687499546795577
0.27600000000000013,6722.3951003911,3.8510793856006806,5160201.111144677,294.0150979184266,2733.5612201216927,53.08280374691863,1.891373552953033,0.0004353982557630641
0.3160000000000001,6712.255435610798,3.8792830079060154,5155212.683465055,293.9722820470861,2743.2682662619563,52.936156626430005,1.8941497587524039,0.0005017846527248714
0.3560000000000001,6707.895319305164,3.904571378195254,5150218.9072929565,293.92938824348397,2751.9931754243316,52.78963471095855,1.89692052354935,0.000567922817705078
0.3960000000000001,6700.666404957551,3.932849460220466,5145222.776555373,293.88644210164256,2761.735733708166,52.643320945583305,1.8996840348086526,0.0006337863919738195
0.43600000000000005,6695.350072486228,3.959508300112232,5140222.728473347,293.84343007931477,2770.9262440959947,52.49717163665815,1.902441184371223,0.0006993931421888319
0.47600000000000003,6688.976544175493,3.9872686815687612,5135219.751486022,293.80036056467105,2780.490108772288,52.35121387545584,1.9051913564675653,0.000764736184220484
0.516,6683.350843780736,4.014445963578252,5130213.249772176,293.75722831713097,2789.8545139383186,52.20543090000281,1.9079348696652887,0.0008298237898565924
0.556,6676.157240708927,4.04207768077001,5125203.593241848,293.7140364097043,2798.174072462736,52.05983266012401,1.9106714757515126,0.0008946549553873196
0.5960000000000001,6667.486686513143,4.069902450261248,5120190.55927001,293.6707828101679,2805.644042499826,51.914412771593305,1.9134012740941164,0.000959234263818528
0.6360000000000001,6658.487983194024,4.097763115704053,5115173.821949066,293.6274645879658,2813.119270280696,51.76916207716717,1.9161244227512033,0.0010235671788743647
0.6760000000000002,6649.712252300437,4.125501881362701,5110153.177440105,293.5840798588578,2820.5604891998614,51.62407484034911,1.9188410074000164,0.0010876579256935263
0.7160000000000002,6640.9008419723805,4.153394938154231,5105128.705679304,293.5406291878022,2828.040751262697,51.479153134263456,1.9215509494158938,0.0011515080194761042
0.7560000000000002,6632.204678096312,4.1813024113244746,5100100.357337642,293.49711202227945,2835.5232375815744,51.33439550488517,1.9242542453985931,0.0012151201400217207
0.7960000000000003,6623.536780035368,4.209307422259765,5095068.159404447,293.4535284692723,2843.029854818077,51.18980260017857,1.9269508484306586,0.0012784962162358127
0.8360000000000003,6614.94523333693,4.237363646795719,5090032.09514478,293.4098782569049,2850.548425690164,51.045373888118235,1.9296407371757334,0.0013416385414122777
0.8760000000000003,6606.401167033864,4.265498930225294,5084992.172343733,293.3661613251844,2858.086289501991,50.90110951863163,1.932323876702815,0.0014045491435932356
0.9160000000000004,6597.919602542297,4.293698504443197,5079948.384337763,293.322377488403,2865.6395777798875,50.757009261768886,1.9350002407610958,0.0014672301449661041
0.9560000000000004,6589.490565220887,4.321972082112217,5074900.732279799,293.2785266281561,2873.210856571646,50.61307311281779,1.9376697990735725,0.0015296835588620836
0.9960000000000004,6582.46725036242,4.350315300817902,5069849.212429166,293.23460858305566,2879.247627297994,50.469300947010844,1.9403325245457965,0.0015919114065067594
1.0360000000000005,6574.739152788639,4.379262352937461,5064793.823428899,293.1906232119066,2884.9495084320442,50.32569271641545,1.9429883891319457,0.0016539156518099681
1.0760000000000005,6567.237208342102,4.4078116114430035,5059733.948035911,293.14656500821246,2890.5714167109268,50.18223182162359,1.945637709105137,0.0017157037120572331
1.1160000000000005,6559.657879106181,4.436562837219007,5054669.681780515,293.1024346620097,2896.2303636033726,50.03892092812497,1.948280399787744,0.0017772765507720852
1.1560000000000006,6552.1899818457005,4.465318310813646,5049600.950521531,293.058231385144,2901.8885161964454,49.89575814710894,1.9509164717091978,0.0018386366133808633
1.1960000000000006,6544.736147396442,4.494191990498785,5044527.7835896835,293.01395529034863,2907.567767012451,49.75274438234964,1.9535458780147235,0.0018997853927268248
1.2360000000000007,6537.346214270891,4.523125837051787,5039450.156904411,292.96960602393716,2913.256993960383,49.609879116083015,1.956168601854463,0.0019607248236236945
1.2760000000000007,6529.993123210702,4.552151630752058,5034368.073986015,292.92518347239985,2918.962298645295,49.46716258077425,1.9587846113978156,0.0020214565669727717
1.3160000000000007,6522.689896182319,4.581253924130554,5029281.5235532895,292.88068739226276,2924.6807310680524,49.324594624106595,1.9613938832831608,0.002081982383857464
1.3560000000000008,6516.502903046069,4.6104420588944866,5024190.501668422,292.83611760352704,2930.4130225759654,49.182175300368215,1.9639963903973294,0.0021423039419907947
1.3960000000000008,6512.558228664966,4.639713799127967,5019095.000188208,292.791473888692,2935.586513411511,49.0399045622909,1.9665921082115172,0.0022024229171726897
1.4360000000000008,6510.805171838394,4.669225418959517,5013995.011224081,292.74675603172955,2939.579828165122,48.89778237982759,1.9691810123195093,0.0022623409549247108
1.4760000000000009,6508.371886148553,4.69897231791933,5008890.356708612,292.7019623219389,2943.5986136672764,48.75580423835909,1.9717631703731968,0.0023220611260778745
1.516000000000001,6505.758367046792,4.7285090145684965,5003780.742369641,292.657090022278,2947.5884670989058,48.61396260240724,1.9743387114446385,0.0023815874378355787
1.556000000000001,6502.7562444255955,4.758267449274745,4998666.2756829,292.61213991930185,2951.605867445157,48.47226057371173,1.9769075474752307,0.0024409204295701295
1.596000000000001,6499.454088018358,4.788051776035451,4993546.889939087,292.5671112692514,2955.625343898009,48.33069666586264,1.9794696844845907,0.002500062100463529
1.636000000000001,6495.788853653227,4.8179589588648035,4988422.603333023,292.52200407360186,2959.6595145512083,48.1892716392305,1.982025083116051,0.00255901370410691
1.676000000000001,6491.775030474355,4.847943361803343,4983293.392863945,292.4768179706736,2963.7024530266426,48.04798518011584,1.9845737262615346,0.0026177768181873187
1.716000000000001,6487.389867222773,4.8780283013280235,4978159.254999765,292.43155276925756,2967.7571933101594,47.90683749522299,1.9871155866317254,0.0026763528327516366
1.7560000000000011,6482.630974195819,4.908203787142386,4973020.176510182,292.3862081918316,2971.8224435645134,47.765828546251456,1.9896506422804867,0.0027347431959127864
1.7960000000000012,6476.00628353642,4.938475895776022,4967876.148473878,292.3407839979569,2975.601497891079,47.62495841661572,1.992178869164212,0.0027929492970152794
1.8360000000000012,6462.969332787172,4.969089446952434,4962727.159569503,292.29527992510907,2978.238077487494,47.48422713593473,1.9947002446813669,0.002850972523019296
1.8760000000000012,6448.278627968358,5.000503685920587,4957572.943082842,292.2496934501037,2980.926418442972,47.34362812015229,1.9972148792931481,0.0029088163301444893
1.9160000000000013,6434.426737770591,5.0310517868744045,4952412.574776178,292.20401621919,2983.5423147637484,47.20313782487843,1.9997232225672905,0.0029664894803249557
1.9560000000000013,6420.387445922777,5.062070378927423,4947246.376065292,292.15825089097524,2986.1957424705893,47.06276507102233,2.002225073818267,0.003023990475824985
1.9960000000000013,6406.540540578948,5.09305963727938,4942074.203132895,292.1123960061534,2988.84560308408,46.92250662720632,2.0047204744689635,0.0030813216070023127
2.0360000000000014,6392.747791569467,5.124207894267947,4936896.085223011,292.0664516367449,2991.5066362768534,46.78236375009044,2.0072093763377956,0.003138483733544965
2.0760000000000014,6379.026342414644,5.155464293038001,4931711.986940793,292.02041728063,2994.1732252264783,46.64233603611139,2.0096917647059462,0.0031954782204205202
2.1160000000000014,6365.348841611065,5.186841462601549,4926521.878258299,291.97429248163485,2996.8482098796303,46.50242323197108,2.0121676220698723,0.0032523063682922118
2.1560000000000015,6351.834612332481,5.218272411305003,4921325.721364619,291.92807671270765,2999.526957698902,46.36262489667527,2.0146369348547566,0.003308969519426415
2.1960000000000015,6343.6638302208785,5.249826084831607,4916123.540779859,291.8817699999937,3001.6567035201792,46.22294219426644,2.0170996579243377,0.0033654685012542013
2.2360000000000015,6340.814537350007,5.281666923884691,4910915.338347306,291.8353721674636,3003.217090659495,46.0833757113006,2.0195557579442203,0.003421804307663555
2.2760000000000016,6337.881835404723,5.313638168716798,4905700.937451063,291.7888814466006,3004.7801798806086,45.943921498042705,2.022005291241162,0.00347797932004054
2.3160000000000016,6335.144048337217,5.345583258044661,4900480.188222603,291.7422963017417,3006.3414995587204,45.804576323544424,2.0244482996295274,0.003533995672770538
2.3560000000000016,6332.539042825152,5.3776959499759185,4895253.115598924,291.6956167537581,3007.909934188255,45.665341422323365,2.026884737022616,0.003589854103780424
2.3960000000000017,6330.090054654229,5.409911165168577,4890019.683216453,291.6488422753069,3009.482479228852,45.52621647805325,2.0293145880845307,0.00364555581601617
2.4360000000000017,6327.7937611494435,5.442251573966981,4884779.874344764,291.6019725128319,3011.0601786653456,45.38720168213541,2.0317378276952796,0.0037011018421386883
2.4760000000000018,6325.65540716706,5.474711201748573,4879533.665514666,291.5550070510864,3012.6427543878176,45.24829706414905,2.0341544341002336,0.0037564932510509553
2.516000000000002,6323.677720487977,5.507293361551107,4874281.035037856,291.50794548924137,3014.2303568424336,45.10950270770547,2.0365643846700534,0.0038117310817804713
2.556000000000002,6321.092534349698,5.539998384849973,4869021.96027272,291.46078741641327,3015.728516102449,44.97081868127291,2.038967657248023,0.003866816364939425
2.596000000000002,6312.329677940627,5.572877939909097,4863756.41849736,291.4135324194579,3016.4734589062687,44.832245060192655,2.0413642297134236,0.003921750116216985
2.636000000000002,6302.961237100726,5.60623622900053,4858484.338867269,291.3661796512722,3017.221897081297,44.69378072510055,2.043754103225145,0.00397653370084145
2.676000000000002,6293.8097660163385,5.6393142546396975,4853205.329708161,291.3187253765463,3017.9619107929875,44.55541656665109,2.0461374331922633,0.0040311708856646585
2.716000000000002,6284.632842698143,5.672648023378939,4847919.482704214,291.271170197802,3018.7065529963465,44.417155597504944,2.048514140136276,0.004085661743240776
2.756000000000002,6275.493331332741,5.706079852657199,4842626.740059431,291.2235133728452,3019.452991969347,44.278997100089015,2.0508842169105432,0.004140007465508312
2.796000000000002,6266.375391121032,5.739652374572221,4837327.083194972,291.17575451035384,3020.2021214177294,44.140941345358016,2.05324763740303,0.00419420893370261
2.836000000000002,6257.28238794948,5.773356506726413,4832020.483469835,291.127893126691,3020.9537462190738,44.00298836273249,2.055604380282183,0.00424826709068043
2.876000000000002,6248.213072404228,5.807195881991496,4826706.9142806055,291.07992875478215,3021.707939657726,43.86513824154484,2.0579544231821845,0.004302182850100165
2.916000000000002,6238.346474548781,5.8411710676251785,4821386.3481371235,291.0318609177496,3022.413152206971,43.7273910583361,2.0602977440954415,0.004355957118518302
2.956000000000002,6219.374980072068,5.8753081226428385,4816058.757358595,290.98368913516396,3022.541443116061,43.589746894143325,2.0626343210352465,0.004409590790375962
2.996000000000002,6200.160849329195,5.909837337163729,4810724.091382354,290.93541271759193,3022.6664731176925,43.452205276979,2.0649641426173133,0.0044630849141821275
3.0360000000000023,6181.378255268699,5.944229257209278,4805382.075464656,290.8870289417274,3022.7915398171226,43.31476025155726,2.0672873013575046,0.004516442156142015
3.0760000000000023,6162.785439137889,5.9788395429727945,4800032.75206586,290.8385379514362,3022.9173718268935,43.17741368243169,2.0696037410289883,0.004569662839039148
3.1160000000000023,6144.430425637121,6.013578293380743,4794676.075637198,290.78993909201574,3023.0436719110608,43.04016528007287,2.0719134464133617,0.004622747917486619
3.1560000000000024,6126.299886616091,6.048464617628192,4789312.018050093,290.7412318645345,3023.1705110896733,42.903015192006166,2.0742163940786673,0.004675698206333928
3.1960000000000024,6108.391209224647,6.083496836863711,4783940.547836028,290.6924157377406,3023.2978774407006,42.765963493522776,2.0765125620296265,0.0047285145322577765
3.2360000000000024,6090.700305668986,6.1186766092294125,4778561.633595291,290.6434901789371,3023.4252590463,42.629010271191994,2.078801928122408,0.004781197709130464
3.2760000000000025,6076.108731716497,6.154005345138948,4773175.243528058,290.5944546497001,3023.37115842666,42.492155611436786,2.0810844702754205,0.004833748541558665
3.3160000000000025,6066.098509639679,6.189563599515889,4767781.3453209065,290.54530860481384,3023.0276437049806,42.355399597838975,2.0833601665144594,0.004886167825820782
3.3560000000000025,6055.952987924248,6.225320572848932,4762379.836832743,290.4960508598713,3022.6805805229587,42.21874063899393,2.0856290260936463,0.0049384568394241065
3.3960000000000026,6045.866933810124,6.261124377089479,4756970.593418661,290.4466800206249,3022.33362123996,42.082176625113,2.087891067655852,0.00499061699877966
3.4360000000000026,6035.789060743189,6.297111805260075,4751553.607470884,290.39719575732545,3021.985256304695,41.950461806169784,2.0902778190175018,0.005042648878703788
3.4760000000000026,6027.510440678839,6.312690581070989,4746128.839347743,290.34759744578577,3021.7777095934075,41.81986654161481,2.0926863806153686,0.005094577508329632
3.5160000000000027,6020.19011572967,6.324442224107663,4740697.532308492,290.2978962041424,3021.6054948352316,41.689373219909086,2.095087189863255,0.005146399720627332
3.5560000000000027,6012.793066583972,6.336747696170628,4735260.265996107,290.2480971084057,3021.428931276828,41.558996170771415,2.0974799576411094,0.005198111698861618
3.5960000000000027,6005.388111662924,6.348986398863368,4729816.956264428,290.1981991646109,3021.252519534089,41.42873430910518,2.099864704112673,0.005249714266280215
3.636000000000003,5997.9881372367245,6.361190224458565,4724367.566383749,290.14820181037214,3021.076266277,41.29858765633335,2.102241427184587,0.00530120790881777
3.676000000000003,5990.587515981682,6.373369621374257,4718912.066966571,290.09810454860667,3020.9000313760216,41.16855640903563,2.104610121207703,0.005352593055839606
3.716000000000003,5983.18717906776,6.385520920084668,4713450.425016572,290.0479068471226,3020.723849544262,41.03864068621456,2.1069707820092423,0.005403870156013953
3.756000000000003,5975.7868964123845,6.39764482524562,4707982.6080299765,289.99760817620495,3020.5477138982924,40.90884062398247,2.109323405007957,0.0054550396489635175
3.796000000000003,5968.386544235989,6.409741317898956,4702508.583245209,289.94720800171046,3020.371623191575,40.77915635833186,2.111667985555947,0.005506101970477572
