time,thrust,OF,ox_tank.pressure,ox_tank.temperature,combustion_chamber.temperature,propellant_mass,propellant_CG,combustion_chamber.fuel_grain.geometry.length_regressed
0.007,236.53727687433815,3.6452547990986233,3609815.552693845,278.8630718450381,2586.460793413416,56.36319416359382,1.8955203805889145,1.6608469214836277e-05
0.014,907.7019962565674,3.3719708031367586,3609158.0820180085,278.85569293092556,2553.4815130012253,56.3293954075397,1.8960471586384,3.3123605773742516e-05
0.021,1933.6199824854743,3.293796392181846,3608553.6689724633,278.84890861645835,2529.4808788198006,56.29815456322346,1.8965268607169423,4.8724931433307724e-05
0.028,2717.108907254465,3.2308821271741155,3607996.268120999,278.8426512526973,2504.2610718627598,56.26918850556543,1.8969651031784098,6.34949768999389e-05
0.035,3319.954376549355,3.1822977071774496,3607478.9395659273,278.8368431003856,2482.98900691402,56.24216883503553,1.8973682077651253,7.753805976327154e-05
0.042,3769.096543445638,3.1466458701530584,3606994.730218443,278.83140622675865,2466.7511368508226,56.21676393902082,1.8977424212773881,9.096569845044819e-05
0.049,4093.818421527046,3.121844883806772,3606537.162794919,278.8262680026917,2455.2487231792647,56.19266283618454,1.898093497652228,0.00010388721933593787
0.056,4342.822739158633,3.105521119364289,3606100.5262044156,278.821364371141,2446.236407873318,56.16958978298341,1.898426462628066,0.00011640304705092154
0.063,4525.14160222623,3.0956261888771173,3605680.0075982716,278.8166413375037,2440.7165848301784,56.14731132237387,1.8987455186930284,0.00012860061347002089
0.07,4657.787786656662,3.090033066891578,3605271.673443112,278.81205476361083,2437.6563293860477,56.125635932213086,1.8990540786294028,0.0001405532403197395
0.07700000000000001,4753.8863635977505,3.087378332556954,3604872.4382575913,278.80757002208645,2436.278624663313,56.10441294751905,1.8993548061392427,0.00015231957035130028
0.08400000000000002,4823.243637690369,3.086703105241104,3604479.9327513757,278.8031605196923,2436.0377278982787,56.083526422489385,1.8996497386481792,0.0001639453000353033
0.09100000000000003,4873.1168357358465,3.087353745066089,3604092.366688476,278.79880616025315,2436.554620281071,56.0628886078954,1.8999404109582776,0.00017546533625293384
0.09800000000000003,4908.838293092306,3.0888942090687297,3603708.403916945,278.79449194329624,2437.5808634348327,56.042433936652955,1.9002279658837533,0.00018690594097909677
0.10500000000000004,4934.304755350566,3.0910358485777216,3603327.0563940876,278.79020677533737,2438.949797139484,56.02211388558818,1.9005132469595711,0.00019828664688026603
0.11200000000000004,4952.352788185136,3.093587465277568,3602947.5985477385,278.7859425090654,2440.5513007841723,56.00189280282168,1.9007968727536868,0.00020962185766693672
0.11900000000000005,4965.0413005216205,3.09642149047305,3602569.500293704,278.7816931917104,2442.3115950964316,55.9817446333453,1.9010792946597035,0.00022092212788619057
0.12600000000000006,4973.861734770471,3.0994519411118997,3602192.37584673,278.77745449055504,2444.1829848014945,55.96165041106115,1.90136084088294,0.0002321951558071276
0.13300000000000006,4979.892673912227,3.102620193377866,3601815.945236968,278.77322326098647,2446.1321181492394,55.941596370479076,1.9016417494111622,0.00024344653761371535
0.14000000000000007,4983.913263759527,3.1058858605207966,3601440.005718512,278.768997225545,2448.1361004663313,55.92157254240802,1.9019221924571623,0.00025468033171389704
0.14700000000000008,4986.485856658673,3.1092208470103495,3601064.410703579,278.7647747374277,2450.1790532935156,55.90157171862912,1.9022022944387627,0.000265899476522593
0.15400000000000008,4988.016063185601,3.112605452033633,3600689.0543373097,278.76055460730095,2452.2498710838004,55.88158869351054,1.9024821451284413,0.00027710609736525784
0.1610000000000001,4988.796287752447,3.116025773132469,3600313.860252892,278.75633597703666,2454.3407336483056,55.861619711044376,1.902761809230457,0.00028830173067853545
0.1680000000000001,4989.037236589918,3.119471951257172,3599938.77340051,278.7521182279553,2456.4461051288035,55.84166206301855,1.9030413333349265,0.0002994874871343622
0.1750000000000001,4989.610331929303,3.1229369688057877,3599563.754123988,278.74790091430407,2458.303160904937,55.82171379773389,1.9033207509560803,0.0003106641699772004
0.1820000000000001,4990.072818462725,3.126433543198669,3599188.773874308,278.743683715114,2460.106640434052,55.80177350923773,1.9036000861764812,0.00032183236068597423
0.22200000000000011,4990.310411869081,3.129945624821045,3598813.809985119,278.739466375484,2461.917557710932,55.78184008096239,1.903879358079342,0.00033299252290606914
0.2620000000000001,4985.964357161054,3.13536519771883,3596668.2295539975,278.7153280989884,2464.7001015536675,55.66798519077515,1.9054746731364207,0.0003966831415849664
0.3020000000000001,4980.539127992732,3.1573887675910055,3594520.676137669,278.69115697613637,2476.0371136510566,55.55423139422505,1.907070016332331,0.0004601626858535408
0.3420000000000001,4981.110665528288,3.1744967615573825,3592370.1457041525,278.66694165879665,2484.8556914916403,55.44052924999902,1.9086662042519482,0.0005234528612365323
0.38200000000000006,4976.981724952332,3.1975811204793616,3590219.353145612,278.6427126821845,2496.740647680152,55.32701021406922,1.9102609251847877,0.000586502682691609
0.42200000000000004,4977.321560738272,3.215447368880526,3588066.0895025493,278.6184451308464,2505.9485021425953,55.213566223062905,1.9118560106291105,0.0006493573732307108
0.462,4973.671841843839,3.238229472894673,3585912.4333242704,278.59416239803693,2517.677032214445,55.10029743209654,1.9134496900870437,0.0007119787020011283
0.502,4973.768732375649,3.2565606250201378,3583756.508618847,278.569843300899,2527.122806688015,54.98711226935676,1.9150435119720695,0.000774405036184433
0.542,4970.505766858495,3.2790982555378188,3581600.064978125,278.54550754321076,2538.7246313664045,54.874094686627345,1.9166359864698685,0.0008366047381229267
0.5820000000000001,4970.42421623339,3.2978192363131256,3579441.5148003446,278.52113717797516,2548.3697158501204,54.761167350078324,1.9182284174632394,0.0008986102835334067
0.6220000000000001,4967.4862300057775,3.320179091640955,3577282.3487692783,278.4967490037519,2559.8791857362294,54.64840148724543,1.9198195359067414,0.0009603951843626169
0.6620000000000001,4967.277463975928,3.3392343506186872,3575121.2102252026,278.4723276662638,2569.695034585755,54.535731146227775,1.9214104502474227,0.0010219872147751617
0.7020000000000002,4964.616222864823,3.3614698352895194,3572959.3822586033,278.44788763353534,2581.139650762917,54.42321737554,1.9230000683420918,0.001083363983215626
0.7420000000000002,4964.320141631601,3.380815941977514,3570795.693892562,278.4234156369585,2591.103837253326,54.31080336098301,1.9245893418047624,0.0011445494934585762
0.7820000000000003,4961.8976176734795,3.4029699195521528,3568631.260764187,278.3989242638499,2602.5050742699536,54.19854195795743,1.926177321133248,0.0012055246325756205
0.8220000000000003,4961.515737812531,3.422572721231738,3566465.061976643,278.37440193213234,2612.5686738221457,54.08638372880624,1.9277648314173366,0.0012663103619965288
0.8620000000000003,4957.4038740799515,3.444695983735464,3564298.077383348,278.34985970355876,2621.974413306786,53.97437489860768,1.929351038807384,0.0013268902068401156
0.9020000000000004,4953.874276176679,3.465527555719665,3562129.3978370205,278.3252872514047,2630.831479604725,53.86247153260413,1.9309366741943106,0.0013872828466034903
0.9420000000000004,4949.7476483814635,3.487099452454429,3559959.2693406353,278.3006873277425,2640.0001826954403,53.75068485673274,1.9325215119311336,0.001447485408927533
0.9820000000000004,4946.187369345539,3.5080648719265963,3557787.4296804536,278.2760569246947,2648.91218167366,53.63900192864564,1.934105746286842,0.0015075043821326333
1.0220000000000005,4942.190379478237,3.5296626732384406,3555614.1201523147,278.25139874300265,2658.090420082619,53.527433742239644,1.9356891564610388,0.0015673369561094775
1.0620000000000005,4938.637028023586,3.550807599739236,3553439.14753772,278.22671055495994,2667.0769612765394,53.41597068383507,1.9372718798465647,0.0016269882685839455
1.1020000000000005,4934.753883884608,3.5724600676193363,3551262.700610264,278.20199446775655,2676.2769802792736,53.304621244004394,1.9388537398873489,0.001686456452598283
1.1420000000000006,4931.2203965344215,3.593771546444262,3549084.6321463543,278.17724877414446,2685.3326128703106,53.19337802852234,1.9404348362863544,0.0017457457360215538
1.1820000000000006,4927.4373826440615,3.6154950605475467,3546905.0905924262,278.15247512524013,2694.5613802060943,53.08224761466326,1.9420150264800238,0.0018048549614179882
1.2220000000000006,4923.932787284806,3.6369633103966534,3544723.963355122,278.127672206019,2703.681995272026,52.97122427791532,1.9435943819739505,0.0018637876666936907
1.2620000000000007,4920.239372925774,3.658770649194128,3542541.368256074,278.1028413210202,2712.9449500567775,52.86031314974984,1.9451727860636396,0.0019225432201938955
1.3020000000000007,4916.770060558862,3.6803888848085236,3540357.2189763077,278.077981453089,2722.1277075716184,52.74950977204376,1.9467502890180441,0.00198112463088742
1.3420000000000007,4913.158079881809,3.702290249655425,3538171.6099476195,278.05309364189804,2731.4291955043013,52.63881817799482,1.9483267939359956,0.002039531657212811
1.3820000000000008,4909.728526342856,3.724053915011409,3535984.474892281,278.02817709772324,2740.6721989043494,52.528234875664715,1.9499023350269296,0.002097766898873651
1.4220000000000008,4906.899674577568,3.7460575997807206,3533795.8902690834,278.00323265659205,2748.216547282252,52.417763059355124,1.951476830665202,0.0021558304038532656
1.4620000000000009,4903.120055914649,3.7688220781682036,3531605.805167093,277.97825970334515,2755.999023555612,52.30739997864059,1.953050302871028,0.0022137244520813813
1.502000000000001,4900.053758420477,3.7905998470342492,3529413.7820840147,277.95325321045146,2763.446457499845,52.19712492864798,1.9546230860418452,0.0022714580449469833
1.542000000000001,4896.433389354617,3.813274719702108,3527220.145660721,277.92821684160765,2771.1965985552247,52.08695272568836,1.9561948975926267,0.0023290267818501247
1.582000000000001,4893.325860862027,3.835317710208374,3525024.63443969,277.90314757335443,2778.732297303406,51.97687092964486,1.957765928932947,0.002386436493261212
1.622000000000001,4889.843228516824,3.8580164643710884,3522827.4803345064,277.87804801404997,2786.4889761049135,51.866890021539525,1.959335973424451,0.0024436843958845996
1.662000000000001,4886.725359926659,3.8802924431192976,3520628.5039663697,277.85291607511397,2794.102059942014,51.757001414433816,1.9609051561129862,0.0025007748301933896
1.702000000000001,4883.354495363264,3.903052349445397,3518427.8692421005,277.82775359018774,2801.8779535782273,51.64721242290303,1.9624733259795835,0.0025577061816493387
1.742000000000001,4880.245996215402,3.925535496349457,3516225.4530306747,277.8025591119508,2809.55969283284,51.53751709605487,1.964040562831229,0.0026144817672944455
1.7820000000000011,4876.968708342643,3.948382737944846,3514021.372091037,277.77733393649766,2817.363706542905,51.427920562870604,1.965606754203012,0.00267110076794938
1.8220000000000012,4873.882798577363,3.9710558734535537,3511815.5422139266,277.75207706066504,2825.108305388226,51.318418694180906,1.9671719487930193,0.002727565788472258
1.8620000000000012,4870.686317036358,3.9940094327977373,3509608.0473886216,277.72678940662547,2832.946898192697,51.20901510736225,1.9687360609561564,0.0027838765498392135
1.9020000000000012,4867.631816801169,4.0168613899200665,3507398.8304110514,277.701470279689,2840.7506008926407,51.09970693640311,1.9702991179695157,0.002840035157607175
1.9420000000000013,4864.930027091497,4.03993528764491,3505187.9524118653,277.67612034098994,2847.561672002321,50.99049675019256,1.971861052938265,0.002896041698549474
1.9820000000000013,4861.989085956965,4.06344503094085,3502975.3749709916,277.65073911062086,2853.7491989722953,50.88138256153506,1.9734218783799833,0.002951897925067507
2.022000000000001,4858.904463228149,4.08680741877245,3500760.8778954404,277.6253240211162,2859.8959418751742,50.772354112402525,1.9749817507107343,0.003007608598705599
2.062000000000001,4855.756002923836,4.11020978835,3498544.4400820974,277.59987478668006,2866.0520727717476,50.66341027628842,1.9765406679318007,0.0030631751030013215
2.102000000000001,4852.527034730619,4.133706110336815,3496326.0711310185,277.57439147373066,2872.231716162177,50.55455133456575,1.9780986038183905,0.003118598293066588
2.1420000000000012,4849.234134068551,4.157272087723801,3494105.7721875445,277.5488740515856,2878.4285995053956,50.445777188406524,1.9796555389750616,0.0031738791515653004
2.1820000000000013,4845.863923780342,4.180929555141527,3491883.5522115,277.5233225793443,2884.6483805938974,50.33708809892201,1.9812114479778686,0.003229018518722163
2.2220000000000013,4842.426670297212,4.20466270194108,3489659.414006883,277.49773704535284,2890.886975367643,50.22848405217773,1.9827663103970294,0.003284017323980674
2.2620000000000013,4838.913987328693,4.228485260213147,3487433.3650708757,277.4721174919281,2897.1479407384404,50.11996525140798,1.9843201022466739,0.0033388764071205983
2.3020000000000014,4835.332459281675,4.252387692628638,3485205.409084579,277.4464639174827,2903.428817345774,50.01153173140094,1.9858728026756591,0.0033935966584614364
2.3420000000000014,4831.828698142689,4.276378794768541,3482975.552584713,277.4207763532969,2909.73148159759,49.903183660253454,1.9874243887258378,0.003448178909679424
2.3820000000000014,4828.68086317612,4.300453022402633,3480743.799736945,277.3950548033434,2916.053924989006,49.79492110320402,1.9889748394273203,0.0035026240194125477
2.4220000000000015,4825.556522948452,4.324616127849838,3478510.1563879303,277.36929929095646,2922.3985878764597,49.68674420533062,1.9905241326244887,0.0035569328074635067
2.4620000000000015,4824.394626266784,4.34886458915286,3476274.626863599,277.3435098219341,2927.292927380947,49.578653047309075,1.9920722474751353,0.0036111061069433346
2.5020000000000016,4822.925226701147,4.3739226427652556,3474037.2166620702,277.3176864155845,2932.071073971259,49.47064776641862,1.9936191623479356,0.0036651447209168
2.5420000000000016,4821.7898700865635,4.3982481328646665,3471797.5608817833,277.2918248131489,2936.7108654661024,49.36271194348599,1.9951651428146882,0.0037190553568331015
2.5820000000000016,4820.488090433729,4.4231626596704725,3469555.840734405,277.26592705826937,2941.4595276718524,49.25485364245335,1.9967100300677367,0.0037728359400939697
2.6220000000000017,4819.405573213753,4.44780538254337,3467311.92543189,277.2399915914474,2946.1568070572125,49.14706697611519,1.9982539073316636,0.0038264893731642193
2.6620000000000017,4818.267868878538,4.472809121570778,3465065.915031029,277.21401952021165,2950.920508793201,49.03935637141018,1.999796679226215,0.003880014870065843
2.7020000000000017,4817.273168651226,4.49771660351784,3462817.7430342836,277.1880100268093,2955.6655584506148,48.93171883152761,2.0013383791865755,0.003933414279878955
2.7420000000000018,4816.280510699513,4.522860689475405,3460567.4630588596,277.16196368250684,2960.4538609908036,48.82415671185762,2.002878948081014,0.003986687540699315
2.782000000000002,4815.392046159852,4.548001763409181,3458315.0419828547,277.13588005492176,2965.2408808596792,48.71666851502023,2.0044183936756106,0.004039835949341496
2.822000000000002,4814.535897988089,4.573314611271857,3456060.509058996,277.1097594336346,2970.059095367113,48.60925551627647,2.0059566758781657,0.004092859812379701
2.862000000000002,4813.764712861164,4.598674326358588,3453803.848521604,277.08360158678965,2974.885312797495,48.501916998988584,2.0074937892388323,0.00414576013256473
2.902000000000002,4813.0421983616225,4.624172566222465,3451545.076867826,277.0574066562843,2979.736550079442,48.394653677961685,2.009029703682723,0.0041985373994973185
2.942000000000002,4810.249488227372,4.649744647541437,3449284.187296497,277.03117451386265,2983.422296002496,48.28746524188823,2.010564407041668,0.004251192456464706
2.982000000000002,4806.357289266312,4.675873588392304,3447021.189623176,277.00490522391596,2986.802565577727,48.1803521160978,2.01209787455051,0.004303725879979894
3.022000000000002,4802.6170695271,4.701671334028902,3444755.8705324326,276.97859625889225,2990.1398530934343,48.073304931553274,2.013630250888129,0.004356141664337662
3.062000000000002,4798.797189795459,4.7277744826583135,3442488.300455375,276.95224838406625,2993.514694637465,47.96632681836644,2.0151614647057463,0.00440843941050553
3.102000000000002,4795.064833112993,4.753845969395626,3440218.4309923,276.9258609843983,2996.885068268778,47.85941569072198,2.0166915349510903,0.004460620537076392
3.142000000000002,4791.308051245881,4.7801201643429465,3437946.2974237585,276.89943441710363,3000.2802216115656,47.752573136555284,2.018220417214826,0.0045126851723551594
3.182000000000002,4787.601812263994,4.806440481411352,3435671.878760615,276.8729683851095,3003.6806296896575,47.64579828286542,2.019748109732588,0.004564634295800822
3.222000000000002,4783.895748816511,4.832914122518298,3433395.1917310297,276.84646302993025,3007.099657626516,47.539091909274305,2.021274582323607,0.004616468304751849
3.2620000000000022,4780.2233822600065,4.859470466052881,3431116.227645019,276.8199181971718,3010.528509405114,47.43245368889785,2.0227998240361043,0.004668187974313636
3.3020000000000023,4776.562188025367,4.886158575429077,3428834.994730208,276.7933339292867,3013.9732974055996,47.32588403561896,2.0243238112543347,0.004719793815960777
3.3420000000000023,4772.927031148661,4.912947115874887,3426551.4897931274,276.7667101355696,3017.4301240251634,47.21938286938657,2.025846529005065,0.004771286505684083
3.3820000000000023,4769.162171596341,4.93985869238288,3424265.7171594375,276.7400468128203,3020.545123312737,47.11295044011871,2.027367956741075,0.004822666598934481
3.4220000000000024,4764.6187190638075,4.967320641153272,3421977.6760385563,276.7133438980596,3022.7819146300535,47.00658677884429,2.0288880778050276,0.004873934720360908
3.4620000000000024,4759.224307384027,4.995512283253172,3419687.1652715188,276.6865989879785,3025.06596401343,46.900283270226204,2.0304070245629844,0.004925094455805673
3.5020000000000024,4754.305991280268,5.022737154483127,3417393.7707402045,276.65980718603345,3027.274606466193,46.79402217629914,2.03192508633574,0.0049761524907690185
3.5420000000000025,4749.15071138446,5.050690838139587,3415097.718027516,276.63297106456514,3029.5393810572036,46.69078636869352,2.0335196152337547,0.005027106007605048
3.5820000000000025,4745.216450721144,5.0675020879578705,3412798.881303263,276.6060890905938,3030.888048333769,46.590197669986274,2.0351811623011566,0.005077971282788868
3.6220000000000026,4741.533063286825,5.076461620054645,3410497.9339385265,276.5791690806328,3031.582395902363,46.489664815884176,2.036840931859421,0.005128750961804089
3.6620000000000026,4737.682428875127,5.085871718668997,3408195.0626247865,276.5522131685107,3032.311141686932,46.38919572159813,2.0384987668482415,0.005179442601534107
3.7020000000000026,4733.915886192436,5.095054912668718,3405890.178440395,276.525220263708,3033.0203592422527,46.288786907931694,2.0401547254386316,0.005230047798761154
3.7420000000000027,4730.072555098648,5.104364391980086,3403583.3165472406,276.49819072774415,3033.738605363128,46.188440020955106,2.041808769088658,0.005280566331266185
3.7820000000000027,4726.276001855752,5.113551459492725,3401274.434546482,276.4711240133609,3034.4470212797096,46.08815351406227,2.0434609194888207,0.005330999103196055
3.8220000000000027,4722.461804724386,5.122777045926578,3398963.5511089363,276.44402028861515,3035.1580536537012,45.98792835618383,2.0451111509363953,0.005381346126886411
3.8620000000000028,4718.663613779125,5.13195656578271,3396650.6527133957,276.41687934400585,3035.8651625442226,45.88776419449165,2.046759462662699,0.005431607878812616
