time,thrust,OF,ox_tank.pressure,ox_tank.temperature,combustion_chamber.temperature,propellant_mass,propellant_CG,combustion_chamber.fuel_grain.geometry.length_regressed
0.007,238.54114149665955,5.107680170583078,4304163.143869792,286.1544402769032,2999.252343962431,54.64845206854774,1.919635927899348,1.1985284729182627e-05
0.014,1060.0757557586878,4.779063373858537,4303214.742486472,286.14510098533225,3129.265296207699,54.61422998061374,1.92030532921205,2.3909365444429564e-05
0.021,2278.5215326878397,4.696535563743021,4302332.174266749,286.13640859375926,3164.8838648596407,54.58231465584963,1.920925940917731,3.518846093766103e-05
0.028,3259.8914777662662,4.634654421058836,4301512.040060065,286.12832991524436,3180.083753517634,54.552589677823406,1.9215004479847642,4.584647179950545e-05
0.035,4024.6500430515807,4.587517869052086,4300747.526014412,286.12079807991546,3184.8111663941254,54.52481917378764,1.9220340088303287,5.5942175314501225e-05
0.042,4616.9966847245905,4.55403862373444,4300030.9332255665,286.11373744394757,3186.8435915256923,54.49873559281586,1.9225323852733647,6.55456945803786e-05
0.049,5077.7568637715885,4.532840824424361,4299354.447819254,286.10707117952853,3188.3776878119443,54.474066501420424,1.9230013782652797,7.47310646087472e-05
0.056,5421.369091495587,4.520951999143241,4298710.607263285,286.10072587595727,3189.973808699481,54.450550967888304,1.923446492356233,8.357128688055783e-05
0.063,5676.840460668741,4.515912305971239,4298092.74718292,286.0946359506018,3191.7906257265468,54.42795540757068,1.9238726187583068,9.213321412592082e-05
0.07,5856.216547759391,4.5153876450266015,4297495.154799229,286.08874516929166,3193.7301424802804,54.4060791897305,1.924283933128041,0.0001004753237764558
0.07700000000000001,5996.011859107032,4.517569354959933,4296913.113005905,286.08300708822287,3195.673284940675,54.38475638804964,1.9246838719971524,0.00010864667490910522
0.08400000000000002,6100.488315312974,4.521217716247934,4296342.842925949,286.0773844941581,3197.5264635956114,54.36385391646607,1.9250751811095295,0.00011668705414002672
0.09100000000000003,6177.221833632487,4.525547150355084,4295781.387608392,286.0718482631638,3199.224481039813,54.34326754174758,1.9254600044605914,0.00012462788568071132
0.09800000000000003,6233.396458175302,4.5301135211661245,4295226.476026989,286.0663760239407,3200.770316833612,54.32291715847547,1.9258399859235242,0.00013249347251786877
0.10500000000000004,6274.40900369188,4.534687444785154,4294676.388234478,286.0609508314752,3202.1629288134336,54.30274207342603,1.9262163687822997,0.00014030231443909903
0.11200000000000004,6304.2787959532625,4.539168754594408,4294129.835479867,286.0555599873406,3203.4222407726797,54.28269679752482,1.9265900835921848,0.0001480683244202216
0.11900000000000005,6325.981558911682,4.543525569166455,4293585.859649278,286.0501940498395,3204.575403615844,54.26274750773528,1.926961821529855,0.00015580187312563598
0.12600000000000006,6341.711053188914,4.5477593829599625,4293043.752586983,286.0448460396563,3205.6438358416012,54.24286920408076,1.9273320930508722,0.0001635106398020098
0.13300000000000006,6353.078467391727,4.551885907377039,4292502.993151495,286.0395108200105,3206.6464753568653,54.2230434894099,1.9277012735449552,0.00017120028300574076
0.14000000000000007,6361.264032483727,4.555924710582215,4291963.199031307,286.0341846220825,3207.598974547106,54.203256868704045,1.9280696382238667,0.00017887495768561338
0.14700000000000008,6367.130632575038,4.5598945451842825,4291424.090404296,286.0288646870408,3208.513765404786,54.183499465924065,1.9284373883983403,0.00018653770704811813
0.15400000000000008,6371.308243653524,4.563811526612699,4290885.462804611,286.02354899873444,3209.4004673607187,54.16376406576583,1.9288046710765532,0.00019419075609449085
0.1610000000000001,6374.256325524375,4.567688719849555,4290347.167010469,286.01823608552996,3210.2663927333288,54.14404540331226,1.9291715934788618,0.00020183572967561977
0.1680000000000001,6376.3097252334055,4.571536351866305,4289809.094213793,286.0129248741744,3211.1170321377685,54.12433964024069,1.929538233733119,0.00020947381350600389
0.1750000000000001,6377.712342946774,4.575362249816473,4289271.16512561,286.00761458242954,3211.956472851785,54.10464398006801,1.9299046487267952,0.0002171058725452251
0.1820000000000001,6378.641765836367,4.579172314675835,4288733.321994574,286.0023046404064,3212.787738907909,54.08495638630686,1.9302708798565222,0.00022473253776395506
0.22200000000000011,6379.2272628714645,4.5829709496026485,4288195.522770949,285.9969946330405,3213.6130579297605,54.06527537641841,1.9306369572300646,0.00023235426959494746
0.2620000000000001,6373.282743999803,4.590914146027497,4285118.0402256325,285.9665992426637,3215.265863537136,53.952859093399695,1.9327275174599423,0.0002758446849718137
0.3020000000000001,6370.848838200358,4.6118636777453785,4282037.470734741,285.93615698261243,3219.757920987007,53.84049922078582,1.9348162694484163,0.0003192232638729038
0.3420000000000001,6368.7781930357005,4.633044769587068,4278954.422901933,285.9056738033596,3224.1226038670716,53.728217103083495,1.936902762116567,0.000362484260767879
0.38200000000000006,6363.976235288153,4.654952994348551,4275869.223938041,285.87515288370014,3227.3608881859795,53.61602414892558,1.9389867471630966,0.00040562499990039186
0.42200000000000004,6358.825766828269,4.676926773467049,4272781.656751324,285.8445920202856,3230.6039149923804,53.503912739255824,1.9410683629809313,0.00044864860421210944
0.462,6353.861857968998,4.698565859784557,4269691.531549322,285.8139892753923,3233.7972744307353,53.39187625274945,1.9431477276124132,0.000491557865235654
0.502,6348.781986864047,4.720460110671355,4266598.944388764,285.78334554023854,3237.026239084987,53.27991804322336,1.9452247568822594,0.0005343525311473094
0.542,6343.7865576580225,4.742239132465767,4263503.819912295,285.75266000805277,3240.2374074195945,53.168035502052234,1.9472994877120924,0.0005770341492804467
0.5820000000000001,6338.7450179805755,4.764147760129716,4260406.1959206145,285.7219329930514,3243.466069605308,53.056229960911374,1.949371877346781,0.0006196030644807819
0.6220000000000001,6333.741481836943,4.7860267630266256,4257306.036226851,285.69116407557357,3246.6892762044818,52.94450018835095,1.9514419351302368,0.0006620603866700703
0.6620000000000001,6328.721510706707,4.8079800879990815,4254203.352378854,285.6603533091559,3249.9219980959288,52.83284661367627,1.953509636960374,0.0007044067157995447
0.7020000000000002,6323.719585708028,4.829941195858397,4251098.124897979,285.62950043905545,3253.1546487692067,52.72126859764532,1.9555749805275893,0.0007466429643270792
0.7420000000000002,6318.713451884088,4.851953360059688,4247990.353952453,285.59860540529934,3256.3934544624617,52.60976618589936,1.9576379498411878,0.0007887698301295579
0.7820000000000003,6313.716854428364,4.873989524655559,4244880.0269402815,285.56766802068717,3259.6345169839938,52.49833898876824,1.959698537873035,0.0008307881328085709
0.8220000000000003,6308.720832435554,4.896067419275376,4241767.13910943,285.5366881757123,3262.8803832231497,52.38698689274761,1.961756732178346,0.0008726986007517337
0.8620000000000003,6303.730669296091,4.918176418321453,4238651.6805166425,285.5056657088804,3266.1295204560606,52.275709611104936,1.9638125239671167,0.0009145020055983458
0.9020000000000004,6297.211256877833,4.940323746132264,4235533.644227988,285.4746004882907,3268.95953099971,52.16450696601207,1.9658659024068823,0.0009561990782129747
0.9420000000000004,6287.645393683559,4.9627733029650525,4232413.021191834,285.4434923605943,3271.0650968255827,52.053378712352306,1.9679168581731266,0.0009977905612785882
0.9820000000000004,6277.722290285791,4.985362669050052,4229289.6345462045,285.41233949784805,3273.1777315969307,51.94231887818785,1.9699654973038125,0.0010392788808498879
1.0220000000000005,6268.196997021585,5.007498262629351,4226163.2834611535,285.3811398287655,3275.247711523978,51.83132071231359,1.9720119413582264,0.0010806666715797617
1.0620000000000005,6258.620642831936,5.029913528825656,4223034.121796387,285.3498948200163,3277.3430167205556,51.72038958770457,1.974056068087321,0.001121952978342722
1.1020000000000005,6249.14090861471,5.052289264026374,4219902.1139465235,285.31860404806827,3279.4339394020544,51.60952440649147,1.9760978855960187,0.0011631387515133433
1.1420000000000006,6239.6804506626895,5.074745115130447,4216767.2794645,285.2872676399248,3281.5313293776035,51.49872595460201,1.9781373642723479,0.0012042243799380717
1.1820000000000006,6230.28226650279,5.097212497182183,4213629.605612059,285.25588539976286,3283.6289621051874,51.38799392237349,1.9801744966555557,0.0012452105679463365
1.2220000000000006,6220.921523576095,5.119730634699947,4210489.097709584,285.22445731204175,3285.730395863291,51.277328617543986,1.9822092630324868,0.0012860978322046842
1.2620000000000007,6211.611483728189,5.142277762405004,4207345.75073323,285.1929832575306,3287.8336566549706,51.16673000027917,1.9842416508015979,0.001326886784769798
1.3020000000000007,6202.344074756409,5.164866549764142,4204199.56531217,285.16146317333204,3289.9398927880106,51.05619822585049,1.986271643586422,0.0013675779743594877
1.3420000000000007,6193.123158180865,5.187490267665039,4201050.53874116,285.1298969629229,3292.0484941864374,50.94573334014928,1.988299227336024,0.0014081719753949295
1.3820000000000008,6183.945947687446,5.210153089837406,4197898.670020683,285.0982845466253,3294.159838627103,50.8353354501579,1.9903243869081888,0.0014486693383888884
1.4220000000000008,6174.813364347036,5.232853075178489,4194743.957038861,285.0666258333651,3296.273749964889,50.72500462873376,1.9923471079730015,0.0014890706177484985
1.4620000000000009,6172.790806401036,5.255591703834392,4191586.398145681,285.03492073645094,3297.5526115569155,50.61474096768571,1.9943673759489373,0.001529376356446723
1.502000000000001,6170.828644066419,5.2789238019833435,4188425.991277522,285.0031691647879,3298.797603705617,50.5045445482648,1.9963851765905252,0.001569587094667133
1.542000000000001,6169.0605840669305,5.301631123110936,4185262.401061249,284.9713676755367,3300.0096355617075,50.3944042969512,1.9984007180902787,0.0016097065763817043
1.582000000000001,6167.295018080283,5.324683829260012,4182095.7703331783,284.93951762921876,3301.2389281915684,50.28432519399783,2.0004138884041036,0.0016497339057576885
1.622000000000001,6165.628856510953,5.347629957136783,4178926.025278971,284.9076182084461,3302.462205335503,50.17430496301478,2.0024247202972956,0.0016896702721934619
1.662000000000001,6164.017198724209,5.370689734695705,4175753.1969679534,284.8756696503345,3303.690802892442,50.0643448406134,2.0044331766486194,0.001729515849486838
1.702000000000001,6162.482689432132,5.393756598826645,4172577.2654788946,284.843671678594,3304.9192350689827,49.95444436303108,2.0064392543035225,0.0017692712942805524
1.742000000000001,6161.016029175856,5.416882524394209,4169398.2353686183,284.8116242630753,3306.1501754476963,49.84460388657814,2.008442933898537,0.00180893702304231
1.7820000000000011,6159.623020807999,5.440042835194707,4166216.099256713,284.77952725305823,3307.3823532493834,49.734823373207824,2.0104442040171775,0.0018485135599257722
1.8220000000000012,6158.302416957738,5.463249787147975,4163030.855337519,284.7473805536954,3308.616397825854,49.6251029736644,2.012443049596358,0.0018880013701395202
1.8620000000000012,6157.056308549612,5.4864979031240795,4159842.498988919,284.7151840414113,3309.852026276407,49.51544274844287,2.014439457467205,0.0019274009396462429
1.9020000000000012,6155.88533595453,5.509790191399858,4156651.026780485,284.6829376043295,3311.088777729337,49.40584280086351,2.0164334137119093,0.001966712737325403
1.9420000000000013,6154.790755169598,5.533125859589426,4153456.434566694,284.65064112302264,3312.3255212439553,49.29630321383916,2.018424904916095,0.002005937233023065
1.9820000000000013,6149.560541470007,5.556505926461879,4150258.718249924,284.61829447821106,3312.992177511018,49.18682407514885,2.0204139176659464,0.0020450748904374937
2.022000000000001,6143.2713102234065,5.580317387330108,4147057.873311287,284.58589754601223,3313.5727669027056,49.077405461958826,2.022400438852596,0.0020841261715583096
2.062000000000001,6137.104325115045,5.603760224481395,4143853.67240099,284.5534479448893,3314.144069870827,48.96804013581142,2.0243845998465533,0.002123093591005098
2.102000000000001,6130.904084820246,5.627387295797242,4140646.1792052854,284.5209462376712,3314.7194217033034,48.85873044976519,2.026366342500006,0.0021619769519782566
2.1420000000000012,6124.732012517529,5.651006694585528,4137435.361937981,284.48839202015085,3315.294308459432,48.74947562031945,2.028345670699902,0.002200776936706052
2.1820000000000013,6118.563236696065,5.67469480694558,4134221.2260100474,284.45578526458013,3315.87051715097,48.64027608878442,2.0303225642478955,0.0022394938787175735
2.2220000000000013,6112.407541201383,5.698421237121472,4131003.7617397406,284.423125789829,3316.4473348392526,48.53113180491003,2.032297012722478,0.0022781282452329628
2.2620000000000013,6106.26083747761,5.722198607120188,4127782.965362392,284.39041347438905,3317.0250556435053,48.42204291548754,2.03426900190219,0.002316680444042036
2.3020000000000014,6100.124565477487,5.746022254475941,4124558.830601589,284.3576481708635,3317.603568850947,48.313009488494565,2.0362385191980725,0.0023551509008183594
2.3420000000000014,6093.997976491852,5.769894428443804,4121331.3520353567,284.32482974012976,3318.182925699354,48.20403162309415,2.038205551487067,0.0023935400284202345
2.3820000000000014,6087.881186492759,5.793814629830056,4118100.52375938,284.2919580377579,3318.7631129742163,48.09510940601228,2.040170085968483,0.002431848239121845
2.4220000000000015,6081.77397450322,5.817783447359573,4114866.3399155266,284.2590329193768,3319.344142968522,47.98624292875533,2.0421321098241965,0.0024700759398695047
2.4620000000000015,6074.688600891833,5.841801042337198,4111628.794484473,284.22605423856027,3319.857002712312,47.87743228086156,2.044091610349746,0.0025082235342122547
2.5020000000000016,6061.665713409669,5.865909554739706,4108387.881367058,284.19302184764985,3319.9535260208636,47.768677552542115,2.046048574901106,0.0025462914216205887
2.5420000000000016,6048.482341509278,5.890270662875014,4105143.571181967,284.15993536105617,3320.048280858402,47.65997808610739,2.048003005522993,0.0025842802038773724
2.5820000000000016,6035.592761099654,5.9143997767264525,4101895.7277986915,284.1267933025795,3320.1423462205807,47.55132979278497,2.049954971278453,0.0026221914218427953
2.6220000000000017,6022.757993048134,5.9386965601870285,4098644.4017668283,284.09359609908586,3320.2369378267763,47.44273461690493,2.051904423314772,0.0026600249475782363
2.6620000000000017,6010.062774826397,5.963003861830256,4095389.5656989203,284.060343381899,3320.331481779745,47.33419199186834,2.0538513619148766,0.0026977813415973153
2.7020000000000017,5997.476549477584,5.987376306520475,4092131.2193277744,284.02703505870534,3320.4261854423503,47.225702228059156,2.055795770302303,0.0027354609194801065
2.7420000000000018,5985.0069954621495,6.011796245206748,4088869.353254013,283.993670943454,3320.5209786017667,47.117265345442846,2.057737637430284,0.0027730640730650193
2.782000000000002,5972.649527383883,6.036269777071891,4085603.9608965553,283.9602508784219,3320.615091081105,47.00888145783058,2.059676950485102,0.0028105911649523732
2.822000000000002,5960.402817260213,6.060795881888766,4082335.0346343652,283.92677469477445,3320.707461034237,46.90055064900865,2.06161369729897,0.002848042562517401
2.862000000000002,5948.264441783935,6.085375555196381,4079062.5667437105,283.89324222213816,3320.7999234439976,46.792273002843565,2.063547865761983,0.002885418629696377
2.902000000000002,5936.234744386475,6.110007036470903,4075786.5490205726,283.8596532847224,3320.8924842308083,46.68404859126798,2.0654794440538553,0.0029227197302947026
2.942000000000002,5924.311243909043,6.134692413766364,4072506.9739795905,283.82600771360626,3320.985148515345,46.57587751247651,2.067408419901769,0.002959946217642467
2.982000000000002,5916.442928062789,6.159431299039392,4069223.833693576,283.7923053348416,3320.8044183695265,46.467759853909804,2.0693347812979006,0.0029970984447187823
3.022000000000002,5909.639706639291,6.184375963524355,4065937.120241248,283.7585459740375,3320.537875920139,46.35969570652557,2.0712585162213655,0.003034176760310766
3.062000000000002,5902.856993242654,6.209243459697042,4062646.744655625,283.72472862308575,3320.271896007699,46.25168260106736,2.0731796621637297,0.003071182201332305
3.102000000000002,5896.08112541958,6.234179202547715,4059352.70737032,283.6908531910165,3320.0053437628067,46.14372091079309,2.075098201625083,0.0031081150308919603
3.142000000000002,5889.311458730551,6.259170929004536,4056054.9997161226,283.6569194928524,3319.7382854306575,46.03581072356986,2.07701412267911,0.0031449755863156154
3.182000000000002,5882.5486796597415,6.28421779698204,4052753.612728539,283.6229273400359,3319.4707369323705,45.927952121372584,2.0789274135621856,0.003181764203463426
3.222000000000002,5875.792376401795,6.3093211260656465,4049448.5377989756,283.5888765471282,3319.20268278949,45.82014520080918,2.080838062276728,0.0032184812112469267
3.2620000000000022,5869.042524405821,6.334480862738321,4046139.766029734,283.5547669251663,3318.9341224384502,45.712390052771035,2.082746056982731,0.00325512693714923
3.3020000000000023,5862.298992348081,6.35969741672376,4042827.288466491,283.52059828404987,3318.6650506497654,45.60468676977239,2.084651385855195,0.003291701705285944
3.3420000000000023,5855.561676190431,6.384971072133339,4039511.0960324104,283.48637043185664,3318.3954634176184,45.4970354438865,2.0865540371228506,0.0033282058369956857
3.3820000000000023,5848.8304669789495,6.410302144589429,4036191.179544236,283.4520831750016,3318.1253564448803,45.38943616726099,2.0884539990571973,0.0033646396507369786
3.4220000000000024,5842.105257813231,6.435690943960566,4032867.529708452,283.4177363181912,3317.8547254919336,45.28188903200922,2.0903512599735747,0.0034010034621520468
3.4620000000000024,5841.07185383211,6.461137782380449,4029540.1371218576,283.38332966442294,3317.390805752923,45.174394130238,2.0922458082296234,0.0034372975840935354
3.5020000000000024,5842.209651914845,6.486731332755132,4026208.9922711765,283.3488630149748,3316.8537965397336,45.06695155404845,2.094137632224264,0.0034735223266579196
3.5420000000000025,5843.531058224217,6.512314576342437,4022874.0400079708,283.31433569792443,3316.316961601744,44.95955998220576,2.0960267473853986,0.003509678372026275
3.5820000000000025,5845.0652679083905,6.5379556412283595,4019535.2715407894,283.2797475199781,3315.779198286339,44.852219542707026,2.0979131414258068,0.003545766013708587
3.6220000000000026,5846.816576552612,6.563660456067877,4016192.678515722,283.2450982918011,3315.240338202142,44.74493038034933,2.0997968017783117,0.003581785538186677
3.6620000000000026,5850.510488509491,6.589423892023404,4012846.2500099223,283.2103877968346,3314.698280099875,44.63769256371043,2.101677717367381,0.003617737249537696
3.7020000000000026,5854.34910685425,6.6152495805263944,4009495.975901509,283.1756158261964,3314.154528993584,44.530506189725735,2.1035558766119444,0.0036536214417451896
3.7420000000000027,5857.733515913288,6.64113464807479,4006141.844966857,283.1407821589373,3313.60977105915,44.42337132487349,2.105431268544621,0.003689438414268664
3.7820000000000027,5860.609843928106,6.6670808721075,4002783.846741022,283.105886581341,3313.0639731502597,44.31628806264305,2.1073038817171135,0.003725188456907289
3.8220000000000027,5862.92509920548,6.693088500759566,3999421.97057277,283.07092887711633,3312.5171288086585,44.20925649432356,2.109173704755757,0.003760871857549594
3.8620000000000028,5864.628193334295,6.719157817698988,3996056.205680194,283.0359088279665,3311.969231724191,44.10227671074203,2.111040726327482,0.0037964889017427102
