time,thrust,OF,ox_tank.pressure,ox_tank.temperature,combustion_chamber.temperature,propellant_mass,propellant_CG,combustion_chamber.fuel_grain.geometry.length_regressed
0.007,249.35403641178368,5.24003801265495,5009193.126790752,292.7046201274434,2722.1403862610373,55.765349205602,1.8263422550657646,1.3649096567918488e-05
0.014,1103.7262400135296,4.966554881085138,5007934.081593811,292.69356704658026,2848.7431534430575,55.72704803524405,1.8271727978193757,2.723144820138793e-05
0.021,2340.574295950888,4.907300217445973,5006747.07951706,292.6831444764667,2886.9737122590022,55.69087641883036,1.8279532959169225,4.0205728142477186e-05
0.028,3336.954976098278,4.8658171456699995,5005627.229497263,292.67330980366853,2904.7061673296253,55.65669185046035,1.828687291526378,5.260622314996298e-05
0.035,4117.885051230044,4.835847116095443,5004566.391322227,292.66399182487226,2914.7764263775384,55.62425600410972,1.8293805145043045,6.449583403111473e-05
0.042,4732.562813076585,4.815558139350275,5003555.922823755,292.6551148650222,2921.2346525909966,55.593315224008705,1.8300389930362306,7.594372696982628e-05
0.049,5205.613885848422,4.8032092613135395,5002587.443446313,292.64660548946824,2925.8348091990983,55.563623003769216,1.830668535272421,8.70187775626238e-05
0.056,5565.6811033042095,4.797029474733023,5001653.248209524,292.63839614891816,2929.390162980272,55.53495228648839,1.8312744540102812,9.778568423546027e-05
0.063,5842.255684296818,4.79524992692508,5000746.5312127285,292.63042715227624,2932.2949933341133,55.50710219601218,1.8318614226516796,0.00010830260328543144
0.07,6048.87989825862,4.796609086851284,4999861.4949137615,292.6226476357709,2934.748328020149,55.47990140056795,1.8324334087867014,0.00011861977113552106
0.07700000000000001,6206.546995581174,4.799630781704643,4998993.308358943,292.6150152038128,2936.822126683774,55.45320699245653,1.8329937091682873,0.00012877951623421204
0.08400000000000002,6324.996472415227,4.803749036078724,4998138.105618997,292.60749592227285,2938.6081039265805,55.426904524770094,1.833544956253574,0.00013881599885657488
0.09100000000000003,6413.687291149495,4.808427656130123,4997292.820722654,292.60006287330435,2940.1494757271166,55.400903184379196,1.8340892338998929,0.00014875648730647138
0.09800000000000003,6477.233665658888,4.813312381539138,4996455.065864124,292.592695089239,2941.4883204238627,55.37513221965386,1.8346281625660068,0.00015862232232146753
0.10500000000000004,6522.282599763693,4.818416676239021,4995623.013736468,292.5853765216977,2942.6820717553514,55.349537473958904,1.835162980808633,0.00016842989480146046
0.11200000000000004,6556.161173347222,4.823632574481641,4994795.250232064,292.5780947490566,2943.76474899964,55.324077033347194,1.835694645994284,0.00017819192283341598
0.11900000000000005,6581.610555766809,4.828850225732832,4993970.688051319,292.57084021873953,2944.752673490137,55.2987186708079,1.8362238934672905,0.00018791820387385988
0.12600000000000006,6601.42052774078,4.8340490903592315,4993148.503682702,292.5636056945401,2945.664695569403,55.27343797936709,1.8367512796712768,0.0001976161688915847
0.13300000000000006,6616.86713577146,4.839222411795089,4992328.075686464,292.55638571496655,2946.5182337218725,55.248216543124016,1.8372772241607682,0.00020729143131486175
0.14000000000000007,6628.289045374719,4.844370036375312,4991508.936390949,292.54917616921455,2947.3290373495774,55.22304050517763,1.8378020424246433,0.00021694821907422877
0.14700000000000008,6636.703304112248,4.849494637862998,4990690.734587827,292.541973969633,2948.1072970325063,55.197899461377574,1.8383259712000568,0.0002265897095554477
0.15400000000000008,6642.871193196678,4.854600176117178,4989873.206980034,292.534776800997,2948.8609249002707,55.1727856135459,1.8388491878245614,0.00023621828663806675
0.1610000000000001,6647.362040798087,4.859690586382729,4989056.15640289,292.52758292922783,2949.5959839648326,55.147693123575394,1.8393718249825768,0.0002458357370980224
0.1680000000000001,6650.601360406605,4.8647693608712075,4988239.435337556,292.5203910565734,2950.3170905728625,55.12261762452181,1.8398939818587345,0.00025544339944443613
0.1750000000000001,6652.9070367983595,4.8698394181447044,4987422.933477366,292.5132002123738,2951.0277428628024,55.09755585192524,1.84041573254307,0.0002650422762378691
0.1820000000000001,6654.51647333087,4.874903111207813,4986606.568376461,292.50600967089537,2951.7305823040706,55.072505366574376,1.8409371323481047,0.0002746331185862537
0.1890000000000001,6655.606928116229,4.87996229370462,4985790.278431076,292.49881888965166,2952.4275983123584,55.0474643464648,1.8414582225471559,0.00028421648956414124
0.22900000000000012,6656.310731258216,4.885018403361934,4984974.017619534,292.4916274631742,2953.1202863496487,55.02243143092012,1.841979033923188,0.00029379281173186344
0.26900000000000013,6648.530563475443,4.893496013736876,4980302.373035855,292.45045194609776,2954.1909510737987,54.87944561780767,1.8449517814477256,0.000348431074244426
0.3090000000000001,6645.056663717593,4.922339561482978,4975626.484023217,292.4092093867381,2958.0638324357446,54.73657213788466,1.8479188589394548,0.0004028865048390753
0.3490000000000001,6636.943954272726,4.950605356148961,4970946.554679644,292.36790146267725,2960.9894885613953,54.59381716245711,1.8508801018982741,0.0004571588077274704
0.38900000000000007,6623.181366023151,4.9806953666374145,4966263.333766438,292.3265346690016,2963.57265886436,54.45120275960204,1.8538349888933534,0.0005112429134024061
0.42900000000000005,6609.829800611101,5.009852240059745,4961575.711142297,292.2850990820627,2966.0728822025567,54.30869659887175,1.8567842255555205,0.0005651500775231617
0.46900000000000003,6596.476887830272,5.039180354846127,4956883.767965533,292.2435952911835,2968.5859364533894,54.16630128856819,1.8597277291210175,0.0006188810025873344
0.509,6583.260520227072,5.068510673192371,4952187.454559279,292.2020227287196,2971.095662231275,54.024015623009234,1.8626655031851878,0.0006724375127007638
0.549,6570.1162419738985,5.097921229460978,4947486.780192498,292.16038134766393,2973.610745202186,53.88184012658371,1.8655975128765805,0.0007258208929312749
0.5890000000000001,6557.072045776427,5.127376879730778,4942781.726894496,292.1186708592223,2976.128323941026,53.73977453987035,1.8685237413664093,0.0007790326410078874
0.6290000000000001,6544.113863129597,5.156894597774853,4938072.288985652,292.07689108275656,2978.649787020894,53.597818970575425,1.8714441640142934,0.0008320741247263173
0.6690000000000002,6531.246231466879,5.186467700773075,4933358.454985897,292.0350417855035,2981.1745909831434,53.45597336739921,1.8743587601559584,0.000884946738813863
0.7090000000000002,6518.465557242351,5.2160999854113665,4928640.215607984,291.9931227534248,2983.703047578515,53.31423775192903,1.8772675078988255,0.0009376518365749455
0.7490000000000002,6509.713104667842,5.245790619483863,4923917.560245643,291.9511337600396,2985.8230305697384,53.172612116738236,1.8801703863905657,0.0009901907604442956
0.7890000000000003,6507.178970428983,5.275661259720235,4919190.478517882,291.9090745801229,2987.292149628614,53.0310964699465,1.8830673748134492,0.001042564829235088
0.8290000000000003,6504.537411088597,5.305642900681152,4914458.8513505515,291.86694401953906,2988.7631538751366,52.88968770643767,1.8859585218371278,0.0010947762516368008
0.8690000000000003,6502.0870548514185,5.335518004512597,4909722.5404214505,291.82474070897354,2990.2286393639133,52.74838219822739,1.8888438877028757,0.0011468273614091
0.9090000000000004,6499.7397677046765,5.365526214087712,4904981.587912346,291.7824648851551,2991.699540208828,52.607181517710856,1.8917234174223316,0.0011987189539673616
0.9490000000000004,6497.532271535764,5.395569380084811,4900235.960275004,291.74011610937157,2993.1713602919467,52.4660850711977,1.8945971044251222,0.0012504524393461198
0.9890000000000004,6495.452967212687,5.42568759743267,4895485.653857146,291.6976942085968,2994.6459363036583,52.325093130683065,1.8974649232833458,0.001302028958661536
1.0290000000000004,6493.509193385925,5.455865734851916,4890730.652816024,291.6551989002084,2996.122574822019,52.18420562768159,1.9003268564273756,0.0013534497352442059
1.0690000000000004,6491.701061368155,5.486110595269939,4885970.945789732,291.61262994073724,2997.601587132458,52.043422630112175,1.9031828835858842,0.001404715936600147
1.1090000000000004,6490.031586549233,5.516420311359457,4881206.519330391,291.56998706721436,2999.082887286243,51.902744154643585,1.9060329859237373,0.001455828729045076
1.1490000000000005,6486.236548713617,5.5467964251872885,4876437.360482755,291.527270020202,3000.2947912918717,51.762170240147576,1.9088771444132444,0.0015067892568028996
1.1890000000000005,6477.920565963076,5.5773955924380605,4871663.4557808135,291.4844785348081,3000.9892192153816,51.621700919056835,1.9117153404573262,0.001557598650559014
1.2290000000000005,6469.247178700639,5.6081840253570325,4866884.657315577,291.441611138798,3001.683014317261,51.481332433315586,1.9145476387017688,0.0016082591062397515
1.2690000000000006,6460.7447106028885,5.638764661936693,4862100.745664644,291.3986657131988,3002.372512368091,51.34105904097099,1.9173741469385386,0.001658773359163734
1.3090000000000006,6452.220420777585,5.669521571915137,4857311.787044422,291.35564269964425,3003.065287961715,51.20088309002431,1.9201947959361307,0.0017091418199537262
1.3490000000000006,6443.737558216256,5.700314537147778,4852517.738405049,291.3125415582474,3003.7584909538764,51.06080384943003,1.9230095841059331,0.0017593657628351468
1.3890000000000007,6435.275109935081,5.731191023809855,4847718.592890767,291.2693620731506,3004.4530892109474,50.92082161705817,1.925818487618773,0.001809446155683718
1.4290000000000007,6426.839281302817,5.762136385137602,4842914.331567881,291.22610391893454,3005.148780952528,50.78093635858942,1.9286214901347305,0.0018593840471477457
1.4690000000000007,6418.427584341438,5.793156128757709,4838104.939071639,291.1827668012486,3005.845677162524,50.64114814790827,1.9314185731891236,0.0019091804420043837
1.5090000000000008,6410.04029579673,5.824249288586963,4833290.3985908395,291.1393504116815,3006.543756006785,50.5014570261159,1.934209719257242,0.0019588363412955693
1.5490000000000008,6396.914167558624,5.855416961280967,4828470.693464043,291.09585444211683,3006.9283083656373,50.361863046269676,1.9369949107749058,0.002008352729933751
1.5890000000000009,6379.535128876085,5.886823999916678,4823645.806677655,291.05227858019725,3007.049796815826,50.222366259286545,1.9397741304384655,0.002057730580904356
1.629000000000001,6362.042911092759,5.918260214602682,4818815.585836055,291.0086212883915,3007.1695462622624,50.08296296274549,1.9425474420774946,0.0021069719010614447
1.669000000000001,6344.628309295013,5.949682694667148,4813979.949435916,290.96488166582844,3007.28942801615,49.9436514535267,1.9453148661849589,0.002156078120010533
1.709000000000001,6327.2071087121385,5.981217682303691,4809138.905536661,290.9210596197955,3007.4095995282487,49.80443252783316,1.9480763694921315,0.002205049957724637
1.749000000000001,6309.818304376732,6.012821833269296,4804292.427810557,290.8771547455235,3007.5299504551467,49.66530603412467,1.9508319393552074,0.002253888386906729
1.789000000000001,6292.689449051104,6.044508020882255,4799440.4994168505,290.8331667229062,3007.649418646418,49.52627209171058,1.9535815574805484,0.0023025942935932632
1.829000000000001,6276.097197405581,6.076273988208896,4794583.100761755,290.7890952057262,3007.767202569183,49.38733075129291,1.9563252072266255,0.0023511685717650275
1.869000000000001,6259.701304614165,6.108121042144631,4789720.212416586,290.74493984805906,3007.8851828223565,49.24848207578089,1.959062871860915,0.002399612101096253
1.9090000000000011,6243.499115156275,6.14004902427303,4784851.81447129,290.700700298395,3008.0033635748255,49.10972612243442,1.961794534937431,0.002447925752080635
1.9490000000000012,6234.298266041155,6.172059155409331,4779977.887215002,290.6563762058062,3007.7052788098404,48.97106296155502,1.964520179892604,0.0024961103810753043
1.9890000000000012,6224.911840251462,6.204350364225836,4775098.410554641,290.611967214653,3007.3969264534317,48.83249266046786,1.967239790382894,0.002544166834897224
2.0290000000000012,6215.633447336994,6.236510288498248,4770213.207559163,290.56747153896947,3007.0904020575927,48.69401101165578,1.969953440940989,0.002592097116870842
2.0690000000000013,6206.3530881903025,6.268819548917668,4765322.307962955,290.5228892716367,3006.782629897463,48.55561947796454,1.972661085512024,0.002639901666303594
2.1090000000000013,6197.09478155228,6.301199877699898,4760425.678592367,290.4782199315713,3006.4743755101063,48.41731780846213,1.9753627146254003,0.0026875813816947913
2.1490000000000014,6187.853760711039,6.333669000518133,4755523.300123629,290.43346316252354,3006.1654740773283,48.27910613821487,1.9780583107494185,0.0027351370465181
2.1890000000000014,6178.630359729059,6.366224505967812,4750615.150387001,290.38861858095737,3005.8559430633604,48.14098453224573,1.9807478579687137,0.0027825694539090028
2.2290000000000014,6169.424195621676,6.398867469661537,4745701.207357214,290.3436858032956,3005.5457706092006,48.00295306709502,1.9834313402507946,0.002829879384590671
2.2690000000000015,6160.23495561948,6.431598492888307,4740781.448723259,290.29866444197825,3005.2349484272945,47.86501181910788,1.9861087416897376,0.002877067610215021
2.3090000000000015,6158.024244796872,6.46441821776784,4735855.851929036,290.25355410581597,3004.716033305228,47.727160865547205,1.9887800464784575,0.0029241348932108084
2.3490000000000015,6159.452829343251,6.497408416911781,4730924.394174143,290.2083543999802,3004.090950673728,47.58940028462233,1.9914452389039963,0.0029710819869234258
2.3890000000000016,6161.203355693739,6.530441709260146,4725986.990622097,290.1630643589544,3003.4649998566106,47.451728495025776,1.9941043380619001,0.00301791008085043
2.4290000000000016,6163.32882799827,6.563547801264566,4721043.606853491,290.1176834770079,3002.8362737488987,47.31414528726715,1.9967573342841294,0.003064619985449545
2.4690000000000016,6165.839270042031,6.59675466936923,4716094.22473433,290.0722113963105,3002.204742919058,47.176650897594214,1.9994042086741681,0.0031112123831873372
2.5090000000000017,6168.749888244959,6.630052071300145,4711138.817815638,290.0266476812328,3001.5719008604806,47.039245346516935,2.0020449469422075,0.0031576880061186456
2.5490000000000017,6172.078100164972,6.663442400304855,4706177.361470898,289.9809919113559,3000.9377150011733,46.90192871122871,2.004679533705686,0.003204047562995336
2.5890000000000017,6175.840980608998,6.696926829889065,4701209.831101375,289.93524366499355,3000.30215930358,46.764701077331836,2.0073079534963005,0.003250291752356288
2.629000000000002,6180.056633202245,6.730505803257984,4696236.201687388,289.88940251504636,2999.6652238334,46.627562526862626,2.0099301910055383,0.0032964212658464645
2.669000000000002,6173.249072920517,6.764180039107648,4691256.447993461,289.84346803086936,2998.892334839629,46.490513143797436,2.012546230966584,0.003342436786873609
2.709000000000002,6158.415919801623,6.797988961273356,4686270.544520977,289.7974397778169,2998.0209317021,46.35355301281459,2.015156058176555,0.0033883389910594848
2.749000000000002,6143.641523456837,6.831880685179983,4681278.436982933,289.7513170535681,2997.147641539565,46.21668146521807,2.0177596730159815,0.0034341287450530226
2.789000000000002,6128.954530062537,6.8658515519156555,4676280.087904373,289.70509930885856,2996.272951529267,46.079898289195945,2.0203570664385704,0.003479806786486155
2.829000000000002,6114.340872148014,6.899926634798664,4671275.475740359,289.6587861399298,2995.3961768615795,45.94320370247655,2.022948220611235,0.003525373732407464
2.869000000000002,6099.802504438688,6.934099521734381,4666264.573183406,289.6123770881254,2994.517477043279,45.80659777811534,2.025533120746379,0.0035708302309108196
2.909000000000002,6085.338385707559,6.9683720103397055,4661247.3536392,289.56587169971294,2993.6368079944928,45.67008061579996,2.0281117515708185,0.003616176916083345
2.949000000000002,6070.947721674794,7.002744747482229,4656223.7901848005,289.5192695162316,2992.754151644785,45.53365231435913,2.030684097888222,0.0036614144153527925
2.989000000000002,6056.629776451248,7.03721838877462,4651193.855611522,289.472570074867,2991.869490515284,45.39731297293564,2.033250144551795,0.003706543349282935
3.029000000000002,6045.729753888605,7.071793637912151,4646157.522452868,289.425772908689,2990.8569775951373,45.26106269175724,2.035809876445458,0.0037515643314749558
3.069000000000002,6036.041496352589,7.106494155589819,4641114.762972846,289.3788775465218,2989.792394852777,45.12490157186897,2.038363278486297,0.003796477968738737
3.109000000000002,6026.354685315056,7.14128582501855,4636065.532807285,289.33188336060596,2988.72501480957,44.98882928990213,2.0409103442336,0.003841284971419354
3.1490000000000022,6016.676640808852,7.176176592405866,4631009.799708803,289.28478983381405,2987.6553233509003,44.85284584799518,2.043451060646608,0.0038859859584617594
3.1890000000000023,6007.004906773532,7.211173626290795,4625947.535460716,289.2375964846877,2986.583094548853,44.716951361383295,2.045985412428039,0.003930581513132039
3.2290000000000023,5997.339538443447,7.246276006347851,4620878.710281812,289.190302815354,2985.5083544222507,44.58114591275469,2.0485133849754824,0.003975072220924694
3.2690000000000023,5987.680304484201,7.281484635733907,4615803.294283997,289.1429083250702,2984.4310762920063,44.445429590221465,2.051034963609028,0.0040194586598045695
3.3090000000000024,5978.026949536826,7.31680025659117,4610721.257299723,289.0954125085931,2983.3512374332213,44.30980248288166,2.053550133658379,0.004063741401448256
3.3490000000000024,5968.367418564384,7.352223582281602,4605632.568865396,289.04781485600057,2982.255194268217,44.17426468044364,2.0560588804676616,0.004107921011429635
3.3890000000000025,5958.61315231698,7.387755121834124,4600537.198230713,289.00011485275456,2981.0407807061033,44.03881627352044,2.058561189386794,0.004151998049231212
3.4290000000000025,5948.866781409715,7.423393583827783,4595435.114509022,288.9523119810861,2979.823561436212,43.90345735753229,2.0610570456909625,0.0041959730673322366
3.4690000000000025,5939.12566564825,7.459143397239775,4590326.288034097,288.9044057327048,2978.6033656021864,43.76818806739449,2.063546433888121,0.0042398466024491255
3.5090000000000026,5929.39010709368,7.495003288776715,4585210.687445606,288.8563955814692,2977.3802371934044,43.6330085028688,2.0660293392072138,0.0042836191947201
3.5490000000000026,5919.659843629821,7.5309743722193945,4580088.281401653,288.80828099939913,2976.1541399777016,43.497918772559515,2.06850574671613,0.004327291376517111
3.5890000000000026,5909.934637446232,7.567057376168727,4574959.038244679,288.7600614535204,2974.925049730407,43.36291898540643,2.070975641489112,0.004370863674702414
3.6290000000000027,5900.214271411929,7.603253031631046,4569822.926012597,288.7117364059435,2973.6929424781893,43.22800925103402,2.0734390085972723,0.004414336610616637
3.6690000000000027,5890.498524315906,7.639562090704361,4564679.912447581,288.6633053139198,2972.457793577896,43.09318968003582,2.075895833100489,0.004457710700082734
3.7090000000000027,5880.7316909480005,7.67598530463837,4559529.964990204,288.6147676297605,2971.1481515671135,42.95846038388982,2.07834610004666,0.00450098645350254
3.7490000000000028,5870.963593584085,7.712507196456674,4554373.050777485,288.56612280079133,2969.806475762801,42.8238214749734,2.0807897944690166,0.0045441643759266395
3.789000000000003,5861.201041482673,7.749155643620654,4549209.147537581,288.5173703722268,2968.461134095264,42.689273340676706,2.08322689601182,0.004587244898097658
3.829000000000003,5851.441215506901,7.785922410612725,4544038.222763324,288.46850979070877,2967.1123571232497,42.554816117911344,2.0856573892596924,0.004630228509206049
