time,thrust,OF,ox_tank.pressure,ox_tank.temperature,combustion_chamber.temperature,propellant_mass,propellant_CG,combustion_chamber.fuel_grain.geometry.length_regressed
0.007,258.3002934861389,5.58876749842886,5867874.760147737,299.7860090285448,2767.333811396791,54.44486186497836,1.7980495064344064,1.4468897421525196e-05
0.014,1287.862112144777,5.326739452272852,5866179.648373096,299.7728608105749,2913.5248615928244,54.40238761326489,1.799132886577714,2.887475359181738e-05
0.021,2685.3440502472595,5.260761865167446,5864571.946503119,299.76038776998234,2958.9200726242025,54.36203241201544,1.8001569450838746,4.272115586470061e-05
0.028,3819.8196873647144,5.211451245296801,5863046.678020739,299.74855173226615,2981.583056586579,54.323677857191306,1.8011252650112382,5.6033324222849005e-05
0.035,4729.828070353213,5.173118906255029,5861594.790035608,299.7372828262401,2994.3147381915865,54.28710682469953,1.8020440823305441,6.886348325481242e-05
0.042,5450.082738452012,5.144545288205436,5860206.487359594,299.72650534330324,3002.459457061973,54.25208367536766,1.8029200656918858,8.127038843708821e-05
0.049,5983.698635255768,5.124408673308227,5858872.0673350785,299.7161442213572,3008.057655643872,54.218374420766736,1.803759767593507,9.331396167913314e-05
0.056,6424.962967068161,5.111317970496649,5857582.419404288,299.70612893144835,3012.1414861713247,54.18575889219756,1.804569302278439,0.00010505180743077169
0.063,6766.852859188922,5.103448884479251,5856329.307414715,299.69639567966243,3015.24375696957,54.1540377012842,1.8053541690042787,0.00011653701666045818
0.07,7029.8134482161995,5.099719773295629,5855105.6116975555,299.6868892974543,3017.710922759438,54.123038241607404,1.806119102588482,0.00012781619281735922
0.07700000000000001,7231.047560005131,5.098906562806898,5853905.279769658,299.67756286853773,3019.7141868312965,54.092613610067104,1.8068681141840912,0.00013892945258240364
0.08400000000000002,7384.417107043129,5.100136735524709,5852723.3082163865,299.6683775967506,3021.3774106619862,54.06264225793097,1.8076045102809668,0.00014991028667925535
0.09100000000000003,7500.855294891641,5.102807896457584,5851555.639293042,299.6593020101659,3022.7850636611424,54.03302554451004,1.8083309660145617,0.00016078606455819037
0.09800000000000003,7588.380988712394,5.106530828194973,5850399.024290869,299.6503109055341,3023.992422741259,54.00368445956692,1.809049618721302,0.00017157882815886102
0.10500000000000004,7654.24802369369,5.110781748445053,5849250.879283866,299.64138423212404,3025.040064617125,53.97455614263584,1.809762165210276,0.0001823061873657978
0.11200000000000004,7703.591192993848,5.115464939005053,5848109.213806319,299.632506541439,3025.960344123,53.945592162309005,1.8104699107382434,0.0001929817528750937
0.11900000000000005,7740.347625662958,5.120447797094325,5846972.485358594,299.6236658593695,3026.789191476534,53.91675498561226,1.8111738654329794,0.00020361609810031216
0.12600000000000006,7767.533026273186,5.1256378436221155,5845839.504384881,299.614852949825,3027.5470213867297,53.88801566970277,1.811874807330406,0.00021421739173082546
0.13300000000000006,7787.4492356243345,5.130973178457125,5844709.357543207,299.60606071994414,3028.249651307667,53.8593519960685,1.8125733331299183,0.00022479191387628767
0.14000000000000007,7801.8494924335455,5.136411802099579,5843581.34585777,299.59728374052696,3028.9096283223394,53.83074696560252,1.8132698989994953,0.0002353444752902842
0.14700000000000008,7813.2386348371865,5.141924865184991,5842454.93571416,299.58851786595386,3029.5359821501575,53.80218760564952,1.8139648528402819,0.0002458787513307294
0.15400000000000008,7822.494851582521,5.147492314699719,5841329.720476535,299.57975993642225,3030.1365388311383,53.77366403537518,1.81465845951357,0.0002563975445226693
0.1610000000000001,7828.782119366866,5.153099991330609,5840205.39067341,299.5710075466079,3030.718346002205,53.745168739672145,1.8153509204066172,0.00026690298904287143
0.1680000000000001,7832.797555869124,5.158737753286006,5839081.71099538,299.5622588671482,3031.2858630404344,53.716696008928075,1.816042388508135,0.0002773967087657335
0.1750000000000001,7835.074332433898,5.164398300201217,5837958.502634485,299.5535125075564,3031.842514729896,53.68824150889436,1.8167329799691547,0.0002878799387483819
0.1820000000000001,7836.019872615513,5.170076306956851,5836835.629760366,299.5447674112275,3032.3909219019292,53.65980195132727,1.8174227829460976,0.0002983536183235659
0.1890000000000001,7835.945293832159,5.175767856793053,5835712.989197816,299.5360227752858,3032.9330858423446,53.63137484261799,1.8181118643435978,0.0003088184621805105
0.22900000000000012,7835.088046745068,5.181470049082123,5834590.502563442,299.5272779895164,3033.4705322746777,53.60295829233218,1.8188002749459442,0.00031927501451629853
0.26900000000000013,7818.821888259183,5.1904526341138375,5828171.043212028,299.47724095413236,3034.2090380896125,53.44065243780302,1.8227242960809913,0.0003789291794190176
0.3090000000000001,7798.032301900755,5.223620470360834,5821748.525353959,299.427135856504,3037.2239357826506,53.278499794299286,1.8266315908166046,0.00043836794175861857
0.3490000000000001,7790.449615045213,5.256157200380884,5815322.390348284,299.3769582022546,3039.3622231086465,53.11648962117319,1.8305225123804223,0.0004975962672171216
0.38900000000000007,7786.776912692104,5.289668015078554,5808893.052778397,299.3267110904157,3041.1370404334293,52.954634654609855,1.8343967965929986,0.0005566125243015808
0.42900000000000005,7783.196404045362,5.322797785274109,5802459.674566083,299.2763878280152,3042.889103061729,52.792917377313614,1.8382549689515966,0.0006154234837746703
0.46900000000000003,7779.794801822881,5.356008873237127,5796022.158334315,299.22598749988447,3044.6442678747567,52.63133813713338,1.8420970847655438,0.0006740308889506508
0.509,7776.5771784380695,5.389286769611012,5789580.388081198,299.17550904151597,3046.401774368727,52.469896801395635,1.8459232107113197,0.0007324365874595501
0.549,7773.544822259824,5.4226356512851375,5783134.253047449,299.12495142567354,3048.161830318416,52.30859333338482,1.8497334098130183,0.0007906423714315327
0.5890000000000001,7770.700988462438,5.456055155097249,5776683.642617979,299.0743136225145,3049.9244176792336,52.1474276707346,1.8535277446268366,0.000848650011878351
0.6290000000000001,7768.048423203294,5.48954650151515,5770228.448020343,299.02359461292536,3051.689596742777,51.986399767245125,1.8573062761842507,0.0009064612477742682
0.6690000000000002,7765.5902344707765,5.523110346348706,5763768.561664728,298.97279338337336,3053.4573996554736,51.82550957803397,1.861069064399567,0.0009640777907755185
0.7090000000000002,7758.24555414401,5.556747540952526,5757303.877316978,298.9219089272903,3054.6706721065634,51.66475706463067,1.8648161679626631,0.001021501324425924
0.7490000000000002,7747.084371609415,5.590752633466105,5750834.28998123,298.8709402441747,3055.525022897661,51.504142193090054,1.8685476444102418,0.0010787335052638168
0.7890000000000003,7735.7787129983335,5.624710536723199,5744359.355202826,298.8198836519212,3056.375104363574,51.34365684324157,1.872263754176065,0.0011357781554622618
0.8290000000000003,7724.582846748093,5.658644954102588,5737878.86501908,298.76873732240784,3057.2235466723264,51.183298530334895,1.8759646123266782,0.001192637527040742
0.8690000000000003,7713.40775339926,5.692696426407715,5731392.757983776,298.7175005787493,3058.072283891007,51.02306823274867,1.8796502453914008,0.0012493129079140795
0.9090000000000004,7702.273969349262,5.726819178825275,5724900.919395726,298.6661723202595,3058.9221260690515,50.862965643487755,1.8833207113846497,0.0013058059111498747
0.9490000000000004,7691.1773576343485,5.7610247186691215,5718403.249165316,298.61475155785234,3059.7733566522706,50.70299078280026,1.8869760591590672,0.0013621180385294546
0.9890000000000004,7680.117983800309,5.795311973007187,5711899.645957232,298.56323728888094,3060.6259462185844,50.54314362273703,1.890616337868893,0.0014182507825808437
1.0290000000000004,7669.094887465503,5.82968222074391,5705390.009892686,298.51162851850347,3061.4799208097065,50.38342415187273,1.8942415953660077,0.00147420560960405
1.0690000000000004,7653.642291528109,5.864136154736887,5698874.241855923,298.4599242542073,3061.832550134024,50.22383235963004,1.8978518786080798,0.0015299839643474287
1.1090000000000004,7634.536074079579,5.898929187618734,5692352.243637627,298.40812350695336,3062.0124050020177,50.06436824036313,1.9014472335733328,0.0015855872693617977
1.1490000000000005,7613.675496903474,5.933626584043066,5685823.635699063,298.35622304647404,3062.19073083659,49.90502518836286,1.9050278668676857,0.0016410186752835833
1.1890000000000005,7591.188719732989,5.9683998885752505,5679288.316851408,298.30422184640895,3062.369415192096,49.74580313166221,1.908593822787615,0.0016962795689320722
1.2290000000000005,7567.186995187053,6.003269651534285,5672746.201030278,298.25211899701543,3062.5484242235057,49.58670233803691,1.9121451365451307,0.001751371227975023
1.2690000000000006,7541.831520887621,6.038226332907389,5666197.191711157,298.1999135016546,3062.727721760297,49.42772281700695,1.9156818489020153,0.0018062949796812822
1.3090000000000006,7516.0535196493565,6.0732735104934665,5659641.196210063,298.1476043905409,3062.906930183885,49.26886465508005,1.9192039979841453,0.0018610521125040388
1.3490000000000006,7494.854071566154,6.10841134571059,5653078.121799838,298.0951906898287,3063.0839590509822,49.1101279255832,1.922711621493469,0.0019156439002910046
1.3890000000000007,7474.7353224767685,6.143641433130349,5646507.876579466,298.0426714285385,3063.216172355956,48.95151270950444,1.9262047562140416,0.00197007159715321
1.4290000000000007,7462.739403318001,6.178985104164475,5639930.368558374,297.990045631233,3062.901343900007,48.79301907483771,1.9296834385193915,0.002024336443215204
1.4690000000000007,7450.428639804576,6.214603198771003,5633345.483925909,297.9373121438854,3062.5808866857697,48.634646575783044,1.9331477163027604,0.0020784397951072553
1.5090000000000008,7438.246998657956,6.250115750006604,5626752.923265325,297.884468319581,3062.26194300871,48.47639048513916,1.9365977381910469,0.0021323841019988943
1.5490000000000008,7426.075329227033,6.285778886833985,5620152.656554341,297.83151366379195,3061.9418423628645,48.31825229610275,1.9400335034560792,0.002186170175454238
1.5890000000000009,7413.93448836973,6.321529466896324,5613544.580637409,297.77844709239344,3061.621141712611,48.160231804882585,1.9434550511459563,0.002239799252627572
1.629000000000001,7401.821143251188,6.357379472596382,5606928.606403793,297.7252676299803,3061.2997420926717,48.00232912384688,1.94686241212227,0.002293272472896986
1.669000000000001,7389.734837419762,6.393328410837676,5600304.643425458,297.67197428671113,3060.977639887942,47.84454432786521,1.950255617474788,0.002346590969995897
1.709000000000001,7377.675017263932,6.42937717206917,5593672.6017987635,297.61856607307084,3060.6548234837637,47.68687749718981,1.953634697514302,0.0023997558611920356
1.749000000000001,7374.001066244924,6.465526623167813,5587032.392042649,297.56504199904225,3060.1003905832117,47.52932871557871,1.95699968182644,0.002452768248063001
1.789000000000001,7375.323522396232,6.501865624262407,5580383.925044761,297.51140107366035,3059.4106179122414,47.37189806952183,1.9603505992987533,0.0025056292169766824
1.829000000000001,7377.066633328623,6.538269033010529,5573727.021766696,297.45764157545784,3058.716726977727,47.21458359994825,1.9636875254282686,0.0025583403612673334
1.869000000000001,7379.311853985922,6.57474868586193,5567061.567061826,297.4037622929619,3058.0219390721563,47.05738480588389,1.9670105008906078,0.0026109028850141848
1.9090000000000011,7382.076836378368,6.611341357278212,5560387.481396883,297.34976229817926,3057.32548921676,46.900301991832656,1.9703195470927783,0.002663317772978066
1.9490000000000012,7385.38249151827,6.648038454610429,5553704.67480396,297.29564057482366,3056.6275316023407,46.74333522170252,1.9736146904058691,0.0027155860578988583
1.9890000000000012,7389.252476982053,6.684842198517835,5547013.059311467,297.2413961187053,3055.9280243581616,46.58648460144389,1.9768959556391659,0.002767708748673757
2.0290000000000012,7393.711346041738,6.721753401505754,5540312.54708622,297.1870279226962,3055.226947931428,46.42975023733161,1.9801633670098002,0.0028196868412230214
2.0690000000000013,7389.444337856518,6.758772892828581,5533603.050491732,297.13253497717983,3054.4206802290164,46.27313223769805,1.9834169481096429,0.0028715213182837385
2.1090000000000013,7370.574103658623,6.795930937024163,5526884.482111363,297.0779162702176,3053.446883818723,46.11663071385335,1.9866567218911464,0.0029232131494078837
2.1490000000000014,7351.738583256329,6.833216893271557,5520156.725566651,297.0231705499541,3052.4697402480265,45.96024512886327,1.9898827253012796,0.0029747634543276823
2.1890000000000014,7333.026786032687,6.870574384203918,5513419.654969775,296.9682964819735,3051.491473621551,45.80397473809642,1.993094999172632,0.0030261733913448715
2.2290000000000014,7314.409505294044,6.908053734501804,5506673.194113087,296.9132931316887,3050.5107253383244,45.64781990811214,1.9962935587308428,0.0030774438279879473
2.2690000000000015,7295.889523366943,6.945645137067633,5499917.254497844,296.858159460277,3049.527337714308,45.49178073043025,1.9994784248449164,0.0031285756892380327
2.3090000000000015,7277.46555427254,6.983350566224742,5493151.749121497,296.80289443684455,3048.5389233119663,45.33585733008053,2.00264961709068,0.0031795698803515865
2.3490000000000015,7259.13449158286,7.021171850322685,5486376.591023601,296.74749702655816,3047.5481552019583,45.18004983351463,2.00580715447663,0.003230427295097057
2.3890000000000016,7242.739345065503,7.059107809590124,5479591.692369772,296.6919661831143,3046.4884236290973,45.02435834877955,2.0089510558849377,0.0032811488208545243
2.4290000000000016,7230.055386489148,7.097172464418232,5472796.966693233,296.6363008670442,3045.2919368828893,44.86878301542046,2.0120813389749324,0.003331735326430061
2.4690000000000016,7217.3517082372055,7.13536693664297,5465992.315908165,296.58049993918786,3044.091897408481,44.71332371938108,2.0151980264251192,0.0033821877325911982
2.5090000000000017,7204.668232879879,7.173659170567937,5459177.633305285,296.52456218479597,3042.8896778486624,44.55798016174923,2.018301144342881,0.0034325069947109673
2.5490000000000017,7191.995350536326,7.212075525091005,5452352.837420869,296.4684865915658,3041.684440317225,44.40275260161373,2.021390706090458,0.0034826939201070724
2.5890000000000017,7179.333282342931,7.250611972626691,5445517.84098216,296.4122720950869,3040.476298246145,44.24764117299158,2.0244667272620265,0.003532749336961769
2.629000000000002,7166.681777995873,7.289269631648257,5438672.55712993,296.3559176298257,3039.2652188589186,44.09264602198819,2.027529222686102,0.003582674060636925
2.669000000000002,7154.040330508304,7.328049552588049,5431816.899086338,296.299422126369,3038.051168071661,43.93776729981653,2.0305782065832676,0.003632468895568868
2.709000000000002,7141.336292281416,7.366952607782456,5424950.779975574,296.24278450991187,3036.762676912349,43.783005159214184,2.033613692647891,0.003682134636311597
2.749000000000002,7128.556660270134,7.405982875506812,5418074.112859396,296.18600370051155,3035.3913801300873,43.62835975555392,2.0366356940281087,0.0037316720674249416
2.789000000000002,7115.781591816761,7.445138636843,5411186.80777422,296.12907858854743,3034.0136166796233,43.47383118325126,2.0396442246789857,0.003781081979067594
2.829000000000002,7103.0140941318705,7.484418714448054,5404288.774980113,296.07200806145374,3032.63247328532,43.3194195467392,2.0426392978413968,0.003830365149809786
2.869000000000002,7090.25479582489,7.523825060874199,5397379.926819325,296.01479101909035,3031.2478987033423,43.16512500062922,2.0456209252026802,0.0038795223370915884
2.909000000000002,7077.502915364635,7.563359392054344,5390460.17616647,295.95742636093644,3029.859831318259,43.01094771629304,2.048589117619825,0.003928554285546645
2.949000000000002,7064.758089739062,7.603022423990652,5383529.435513383,295.89991297847683,3028.468245891552,42.85688786245764,2.0515438855340653,0.003977461731854186
2.989000000000002,7052.0199228147985,7.6428151146227545,5376587.617219647,295.8422497572296,3027.0731092932037,42.70294561092541,2.0544852388529913,0.004026245403493188
3.029000000000002,7039.201458900489,7.68273841233928,5369634.633473531,295.7844355763765,3025.582590712047,42.54912113605453,2.05741318696472,0.004074906019006946
3.069000000000002,7026.383689402369,7.722782198886086,5362670.396271882,295.726469308549,3024.066848614553,42.39541461464657,2.060327738743258,0.0041234442881658215
3.109000000000002,7013.57192250532,7.7629661780386945,5355694.827424125,295.66834990317426,3022.5469363282086,42.241826438134304,2.063228898180527,0.004171860861348435
3.1490000000000022,7000.764753599769,7.803284189616262,5348707.838858495,295.61007622251486,3021.0230470450465,42.08835679429161,2.066116673055046,0.004220156430000721
3.1890000000000023,6987.9626274205175,7.8437360542895345,5341709.341607437,295.551647116266,3019.495194595466,41.93500585935126,2.0689910709274217,0.004268331680525665
3.2290000000000023,6975.165028110373,7.884323273272226,5334699.246993792,295.49306143139427,3017.963324002714,41.78177382342877,2.0718520986197446,0.004316387288329725
3.2690000000000023,6962.371619768313,7.925046744530076,5327677.465990153,295.4343180067454,3016.4244494155037,41.62866087725984,2.074699762491612,0.004364323921119629
3.3090000000000024,6949.554766497407,7.965908753517079,5320643.909289608,295.3754156735794,3014.8530637112517,41.47566721401495,2.0775340684051535,0.0044121422385883565
3.3490000000000024,6936.701597775213,8.006898626934229,5313598.486126978,295.31635324562853,3013.2202250040714,41.32279300500367,2.0803550222165748,0.004459842898282692
3.3890000000000025,6923.874482015177,8.04801724683868,5306541.11487827,295.2571296079836,3011.5836980463373,41.17003862102851,2.083162625328881,0.004507426503372479
3.4290000000000025,6911.045051664091,8.089292311816395,5299471.720540137,295.19774369626253,3009.942134283242,41.017404577929696,2.085956875858071,0.004554893616013661
3.4690000000000025,6898.218322238347,8.130705371539456,5292390.209313969,295.1381942830198,3008.2962617003695,40.86489100838935,2.0887377792037154,0.004602244882106805
3.5090000000000026,6885.393995506921,8.1722603247694,5285296.490581971,295.0784801619705,3006.645939666551,40.712498121260104,2.0915053387950437,0.004649480922650798
3.5490000000000026,6872.571482029043,8.213958385106897,5278190.473408682,295.0186001185869,3004.991120287305,40.560226128831964,2.0942595575577485,0.004696602351066978
3.5890000000000026,6859.748707245221,8.255800388035965,5271072.06632517,294.958552928216,3003.32984305812,40.40807524269442,2.0970004379975924,0.004743609774275057
3.6290000000000027,6846.87135390214,8.29778620562264,5263941.1775002945,294.89833735745526,3001.6014607293937,40.25604567760523,2.0997279821251222,0.0047905037918846965
3.6690000000000027,6834.042752484073,8.339881276154442,5256797.715696955,294.8379521721755,2999.8702835861013,40.10413767136836,2.1024421910696347,0.004837284991656647
3.7090000000000027,6821.2053488907395,8.3821579037856,5249641.620584899,294.77739639414466,2998.1328987813895,39.95235210374195,2.1051430530569264,0.004883953805381853
3.7490000000000028,6808.368242478334,8.424576972503244,5242472.792991734,294.71666871120215,2996.3886771962816,39.800689068283695,2.1078305713113843,0.0049305108425615396
3.789000000000003,6795.530435884929,8.467145374225526,5235291.13955081,294.655767854289,2994.63848818253,39.64914878948823,2.11050474606519,0.004976956675886227
3.829000000000003,6782.6913952856185,8.50986392717192,5228096.566006212,294.59469254079204,2992.883381943584,39.50030203978595,2.1132396368980055,0.005023291873342616
