time,thrust,OF,ox_tank.pressure,ox_tank.temperature,combustion_chamber.temperature,propellant_mass,propellant_CG,combustion_chamber.fuel_grain.geometry.length_regressed
0.007,249.9854459423113,3.450365195591075,4633572.673634662,289.30866754511027,2563.145037280917,51.50430370899879,1.9520751684843791,1.9880066165141453e-05
0.014,1169.2224715424045,3.2354538104470523,4632400.044069928,289.2977436634215,2527.0853036603444,51.46537839851558,1.952722177639507,3.9645212728755e-05
0.021,2393.459929604367,3.1975286916100796,4631307.575580744,289.2875646568451,2519.7704733622404,51.429006407820935,1.9533213799122513,5.834835845503114e-05
0.028,3365.0274675202586,3.1676421103045227,4630286.655695713,289.27805065785043,2509.765330350873,51.39491839773916,1.9538781082922654,7.608935328345784e-05
0.035,4108.951788248343,3.145988013944585,4629327.958832537,289.2691150731565,2501.478295959547,51.36282137688943,1.9543980521534983,9.298105694717893e-05
0.042,4687.822303341869,3.1316976047080956,4628421.981514666,289.26066957719235,2495.814698754928,51.33241549331883,1.9548869409398195,0.0001091426203737069
0.049,5131.271898832796,3.1235317565704195,4627559.632270058,289.25262961923374,2492.7006512596427,51.30341281605979,1.9553502039714898,0.00012469136369349138
0.056,5474.096435914049,3.120071120291583,4626732.630512691,289.24491815255516,2491.6592923728153,51.27555023902815,1.9557927479038668,0.00013973671722764347
0.063,5732.649015010881,3.119951670145298,4625933.739313704,289.23746781567723,2492.1389195629336,51.248597184271354,1.956218833495926,0.00015437619685529608
0.07,5920.839247098607,3.1220328821217262,4625156.851332304,289.2302217440022,2493.6546871582664,51.22235862697429,1.9566320375710315,0.00016869339223047922
0.07700000000000001,6058.484226857803,3.1254635659182726,4624396.95997731,289.2231333100262,2495.7524280858015,51.196674408962295,1.9570352797571244,0.00018275767526212126
0.08400000000000002,6164.765582774657,3.129659511695943,4623650.055731062,289.21616516408125,2498.179643707887,51.17141609445044,1.9574308901465853,0.00019662513322628362
0.09100000000000003,6243.714457781966,3.1342426710734372,4622912.986833689,289.2092879410845,2500.75559090251,51.14648262363302,1.9578206952430217,0.00021034017425441712
0.09800000000000003,6302.200317962743,3.1389956404745027,4622183.313350468,289.2024789041158,2503.383587108895,51.12179570625938,1.9582061058497608,0.00022393736285493748
0.10500000000000004,6345.415150874445,3.143798990171105,4621459.167526418,289.19572064539864,2506.0085841181362,51.09729538367556,1.958588199944652,0.00023744326325922063
0.11200000000000004,6377.261479862212,3.1485933499287198,4620739.132012601,289.18899995299097,2508.607086452253,51.07293614313768,1.9589677943085608,0.000250878092275727
0.11900000000000005,6400.660613428873,3.153353594483352,4620022.138385229,289.18230686600845,2511.1720216531617,51.04868367107182,1.9593455038511216,0.0002642571219937929
0.12600000000000006,6417.792520966354,3.1580727425668447,4619307.385295138,289.1756339123979,2513.7035562375554,51.024512229795704,1.9597217892501835,0.0002775918250708024
0.13300000000000006,6430.279856232856,3.1627525645775885,4618594.273986533,289.16897550832783,2516.2055355333955,51.00040258854775,1.9600969943604003,0.0002908907845328063
0.14000000000000007,6439.328195515057,3.1673984155228787,4617882.358356444,289.16232749292953,2518.682981108085,50.976340419909235,1.960471375115452,0.00030416040243099693
0.14700000000000008,6445.831983574662,3.1720165808150127,4617171.30675294,289.1556867723399,2521.1408622114304,50.95231507262514,1.9608451215952643,0.0003174054440108872
0.15400000000000008,6450.454125823867,3.176613029880874,4616460.873015836,289.149051049822,2523.583570031392,50.92831864112291,1.961218374729713,0.00033062945127040476
0.1610000000000001,6453.68553155698,3.1811929221868733,4615750.874668913,289.14241862250395,2526.0147578775677,50.90434526476989,1.9615912388624652,0.0003438350548831301
0.1680000000000001,6455.889518717818,3.1857604912903215,4615041.176577705,289.13578822903906,2528.437356732853,50.88039060277705,1.9619637911569112,0.0003570242081578228
0.1750000000000001,6457.334851361126,3.1903191020602826,4614331.678746969,289.12915893584085,2530.853663598924,50.85645144217011,1.9623360886136771,0.00037019836180243157
0.1820000000000001,6458.220276647459,3.1948713740081938,4613622.307233658,289.12253005235306,2533.265450488472,50.83252540590388,1.9627081732928229,0.00038335859407504126
0.1890000000000001,6458.692724612509,3.1994193180262642,4612913.007393147,289.1159010680683,2535.674069645578,50.80861073597702,1.9630800761926963,0.0003965057074932405
0.22900000000000012,6458.860794166762,3.2039644629565935,4612203.738867105,289.10927160578194,2538.0805451757615,50.78470613251772,1.9634518201269293,0.0004096403005750456
0.26900000000000013,6450.949900801147,3.2111711098453117,4608144.112595782,289.07131184499616,2541.8780181504158,50.64818769253439,1.9655741934069522,0.0004845587913771198
0.3090000000000001,6441.524774057022,3.2387993715808334,4604080.316591803,289.03328776708014,2556.480598445063,50.5118320894717,1.9676942797452894,0.0005591445256716758
0.3490000000000001,6440.913905861607,3.261349086683498,4600010.63582719,288.9951831946629,2568.4142143079466,50.3755839846167,1.9698129905694173,0.0006334253775366842
0.38900000000000007,6434.3893935748865,3.2900027871527966,4595940.2292462345,288.9570463328289,2583.5629076046835,50.23960564079635,1.9719273623449567,0.000707333818058495
0.42900000000000005,6433.06215756123,3.313987413005897,4591865.492130024,288.91884332385723,2596.2524868135524,50.10378178321885,1.9740393777266563,0.0007809239740649832
0.46900000000000003,6427.631466752336,3.3420089401776787,4587789.543018585,288.8806033170131,2611.0663965984577,49.968209605112065,1.9761472371045992,0.0008541570723710502
0.509,6425.75525015589,3.366780300475172,4583709.874680335,288.8423027064188,2624.16896827788,49.832808914835276,1.9782523003220545,0.0009270715218686968
0.549,6421.078412442105,3.394388197443477,4579628.626864575,288.8039614933133,2638.7633138366086,49.69764579909916,1.9803533255850474,0.0009996421645525485
0.5890000000000001,6418.885288641939,3.4197278344220106,4575544.073580428,288.76556337945834,2652.16368190363,49.562664952809754,1.9824512318952956,0.0010718963002414748
0.6290000000000001,6413.8089647132565,3.447097474369842,4571457.712170088,288.72712235522033,2664.4057524760183,49.4279121364171,1.9845451426651821,0.00114381757242414
0.6690000000000002,6408.3034537848,3.473843692283413,4567368.340526833,288.68862702886986,2676.148434368953,49.2933486876014,1.9866356830502272,0.0012154258583973276
0.7090000000000002,6402.372965573846,3.5007342924947906,4563275.8714995785,288.6500764841153,2687.95216390606,49.15897093423363,1.9887228572960094,0.0012867258725236157
0.7490000000000002,6396.495226982003,3.527502717143959,4559180.159055061,288.6114692469052,2699.701307073108,49.02477342907531,1.9908067022478637,0.0013577230054236233
0.7890000000000003,6390.352030979197,3.554480256326362,4555081.325899123,288.5728063749164,2711.5404633099283,48.89075911112203,1.9928871071057166,0.0014284190152287013
0.8290000000000003,6384.207445484501,3.5814238474598294,4550979.313899562,288.5340872211252,2723.363683674514,48.75692532913602,1.9949640613873434,0.0014988179792144367
0.8690000000000003,6377.855700132121,3.608529083294503,4546874.209681501,288.49531250446216,2735.256241435072,48.62327393813011,1.9970374758649014,0.0015689220130539134
0.9090000000000004,6371.464928923753,3.635643251865494,4542765.986011679,288.45648186921744,2747.1516096393025,48.48980329402888,1.9991073244091477,0.0016387346575874773
0.9490000000000004,6364.905052714473,3.662888933708535,4538654.704370929,288.41759579803613,2759.103202275316,48.356514510700364,2.0011735331358933,0.001708258242130233
0.9890000000000004,6358.284706986726,3.6901704709123693,4534540.35558643,288.37865410587716,2771.069377539759,48.22340654613064,2.0032360673582423,0.0017774959513101904
1.0290000000000004,6351.521735489294,3.7175655022778016,4530422.985431779,288.3396571277359,2783.0839514794334,48.09048006648702,2.0052948632040537,0.0018464502068434876
1.0690000000000004,6347.102225768961,3.74501378778091,4526302.595484357,288.30060478044874,2793.403623436839,47.957734401078824,2.007349881421036,0.001915123941216072
1.1090000000000004,6342.835894241445,3.773268847310264,4522179.221574602,288.2614973055531,2803.450664461917,47.825169946191494,2.0094010648837597,0.001983519597247043
1.1490000000000005,6339.422592976259,3.8008346148239096,4518052.100134137,288.22232735560493,2813.2516550681185,47.692762793388646,2.0114487856653316,0.0020516495927532506
1.1890000000000005,6335.7669020049925,3.8288668014401126,4513921.503029842,288.1830974001808,2823.215287318916,47.560520675841786,2.0134928584259955,0.002119513186061851
1.2290000000000005,6332.432096096575,3.856686416914358,4509787.230483549,288.1438054315617,2833.1026690268127,47.42843699079518,2.0155333512992804,0.0021871155063450357
1.2690000000000006,6329.007278219413,3.8848198861114875,4505649.460230681,288.1044530280028,2843.099076305755,47.29651662053044,2.0175701310131084,0.0022544569183319345
1.3090000000000006,6325.797824918607,3.912876201356429,4501508.091573905,288.0650391212656,2853.0669889423943,47.16475602068466,2.019603213391193,0.0023215412048074274
1.3490000000000006,6322.5762257864435,3.9411506915399803,4497363.231023612,288.02556461415185,2863.110262770338,47.03315793222832,2.021632504549772,0.0023883695396104106
1.3890000000000007,6319.511383073722,3.9694230473229806,4493214.829829373,287.9860289317008,2873.1514804791536,46.901720421614506,2.023657993508149,0.0024549449666884052
1.4290000000000007,6316.4769191648265,3.9978607180507417,4489062.954636684,287.94643259819384,2883.2494869539964,46.77044504794404,2.025679608740864,0.0025212690730168773
1.4690000000000007,6313.552758071173,4.026339134798413,4484907.585096958,287.90677530877826,2893.354531861922,46.63933076708711,2.027697325123472,0.002587344466605537
1.5090000000000008,6305.44117035065,4.054956277291507,4480748.76545218,287.86705737475666,2901.26254930631,46.508378487852234,2.029711084035876,0.002653172930809582
1.5490000000000008,6295.879324111127,4.084505123615071,4476586.4884829,287.82727861624807,2909.4176721747835,46.37758759044003,2.0317208543269367,0.0027187568320956187
1.5890000000000009,6287.316672829611,4.112997401711171,4472419.898578366,287.78743073622417,2917.282978919493,46.2469322115516,2.033727046138137,0.0027841086004944835
1.629000000000001,6278.1451989222305,4.142351915517393,4468249.529481302,287.7475187155864,2925.381267337283,46.116427991445505,2.035729344792896,0.00284922396389506
1.669000000000001,6269.495517417868,4.171271970606915,4464075.021343344,287.7075389881246,2933.359798205586,45.986063957803474,2.037727900922756,0.0029141092769042988
1.709000000000001,6260.578374221426,4.200676563562815,4459896.646177771,287.6674940352982,2941.468495994593,45.855847941332705,2.03972253776092,0.002978763354040894
1.749000000000001,6251.9436635223765,4.2299211967652255,4455714.23430256,287.6273821078544,2949.532198664446,45.72577467466546,2.041713307415543,0.00304319019912632
1.789000000000001,6243.206218311998,4.25946134871624,4451527.924587391,287.5872044138478,2957.674654333345,45.59584804229956,2.0437001032393303,0.003107390150960818
1.829000000000001,6234.633986786682,4.288978005026568,4447337.639439076,287.5469600849785,2965.8092520501013,45.46606554020468,2.0456829302786437,0.003171366052836781
1.869000000000001,6226.03859756276,4.318697648200179,4443143.452306332,287.50664970257566,2973.9974692444,45.3364291323832,2.0476617165033217,0.0032351189544482318
1.9090000000000011,6221.811868897011,4.348462411463474,4438945.330343158,287.4662728268445,2980.7252510135263,45.206937663216124,2.049636444581302,0.0032986511092538188
1.9490000000000012,6218.801152469261,4.379003063759062,4434743.314698077,287.42582972907877,2986.902210942893,45.07759216264016,2.0516070598174747,0.0033619638849609087
1.9890000000000012,6215.916513891944,4.409104834491672,4430536.799453831,287.3853144467856,2992.986696224516,44.94837476827242,2.0535738345222314,0.0034250659979942937
2.0290000000000012,6213.043431556974,4.4394523656154945,4426325.8594196895,287.34472756381473,2999.11757393314,44.81928760807999,2.0555366951396454,0.003487958291064996
2.0690000000000013,6210.328684782001,4.469820644771222,4422110.432251472,287.30406834221,3005.250905380965,44.69032881528753,2.0574956376035582,0.003550643141931891
2.1090000000000013,6207.685826574734,4.5003736663533624,4417890.566543429,287.263337112976,3011.4191613658827,44.56149976960075,2.059450602250071,0.0036131216403349417
2.1490000000000014,6205.172050030919,4.5310087041196825,4413666.241005834,287.22253353269014,3017.602035442705,44.43279982614646,2.0614015647832558,0.0036753956404042753
2.1890000000000014,6202.752651500515,4.561794040314734,4409437.478896307,287.1816576875845,3023.8130286135615,44.30422964420134,2.0633484788788388,0.0037374664685316363
2.2290000000000014,6200.451509263266,4.5926875221880605,4405204.274450515,287.1407093831928,3030.043821147622,44.17578905100072,2.0652913129590047,0.0037993357513391897
2.2690000000000015,6198.255315001385,4.623718207438145,4400966.6400623955,287.0996886002115,3036.3001549326136,44.047478408756604,2.067230026669673,0.0038610048878100107
2.3090000000000015,6193.081364223811,4.654869284474005,4396724.576056504,287.0585952022082,3041.0366345009743,43.91929774029051,2.069164585892121,0.003922475386818834
2.3490000000000015,6186.059049936859,4.686900807657872,4392478.09005332,287.0174291229953,3045.4705822323986,43.791247287862056,2.071094953144329,0.003983748652591367
2.3890000000000016,6179.324919135023,4.718303937395968,4388226.50509285,286.9761836524127,3049.816433251023,43.663307697997006,2.073021425923659,0.004044833536214984
2.4290000000000016,6172.462623857224,4.750117049385487,4383969.998141739,286.93486035378675,3054.2159200176093,43.53548418468583,2.074943881488019,0.004105729461217036
2.4690000000000016,6165.734952007072,4.781901651980189,4379708.457320276,286.8934579875951,3058.6101574926065,43.407773692355406,2.0768623387147223,0.004166438986961897
2.5090000000000017,6158.992022052302,4.813921264007284,4375441.94661482,286.8519770210227,3063.0345779383692,43.280178206237245,2.0787767308017275,0.004226962735926501
2.5490000000000017,6152.318997622499,4.846026299900467,4371170.429089341,286.8104169401868,3067.4690859013695,43.15269683874763,2.080687040235959,0.00428730240383338
2.5890000000000017,6145.666755161782,4.878304936979679,4366893.925231436,286.76877778887507,3071.9255219590727,43.025330347639056,2.082593221821457,0.004347459045531037
2.629000000000002,6139.0627212861555,4.91070857723551,4362612.422264442,286.72705928661634,3076.3973659062717,42.89807855328366,2.084495246609361,0.004407434053141501
2.669000000000002,6130.436060828926,4.943267156252749,4358325.925974178,286.6852613330385,3080.3444496699526,42.77094181160569,2.0863930768649688,0.004467228599976908
2.709000000000002,6117.353950567402,4.976273635789158,4354034.431158558,286.64338372006455,3083.2506577223226,42.643920175754026,2.0882866802843725,0.004526843956823567
2.749000000000002,6103.6966241450045,5.0096627785752155,4349737.671868451,286.60142369158524,3086.180265296981,42.51700637272751,2.0901761484406105,0.004586284113686121
2.789000000000002,6090.510220120893,5.042630133475161,4345435.244495696,286.55937713735057,3089.072399454701,42.39018933187824,2.0920616364641904,0.0046455544353540814
2.829000000000002,6077.223052525061,5.0760361637208105,4341127.334672048,286.5172456996332,3092.000547499459,42.26347459118356,2.093943019270461,0.0047046540596947595
2.869000000000002,6064.11669664518,5.109457793471763,4336813.840308177,286.47502820835496,3094.9289939730925,42.13685960860955,2.0958203082685727,0.004763585124989929
2.909000000000002,6051.05075483013,5.143108856676121,4332494.802144432,286.4327248892481,3097.8757763350804,42.01034585847386,2.097693447474323,0.004822348259476136
2.949000000000002,6038.093407464465,5.176884923773283,4328170.189503284,286.39033526824267,3100.8320864947295,41.88393282399408,2.0995624146138936,0.004880944816908428
2.989000000000002,6025.21013970718,5.210840139111264,4323840.006624868,286.34785921231116,3103.8024851558475,41.75762097292428,2.101427171106259,0.004939375771996816
3.029000000000002,6015.874155198902,5.244949966384221,4319504.240094313,286.3052964144646,3106.392343472752,41.63141028923272,2.103287686698823,0.004997642264654051
3.069000000000002,6014.087701652977,5.279472711270125,4315162.884741425,286.2626466476319,3108.12868697017,41.511174274268534,2.1053060790629172,0.005055745333364979
3.109000000000002,6010.057451622162,5.290905843813667,4310815.729593007,286.21990765975823,3108.6574610492767,41.39125474001164,2.107326767952282,0.005113724712303367
3.1490000000000022,6005.5853383567655,5.303541738610604,4306464.440722572,286.1770956668913,3109.240989716791,41.27144766838784,2.1093420501996616,0.005171565519476178
3.1890000000000023,6001.284551373206,5.315490250945812,4302108.545358176,286.13420586622806,3109.791201020521,41.15174098088525,2.111352136157218,0.005229273053002824
3.2290000000000023,5996.924387895479,5.327696017963335,4297748.223311346,286.0912398731665,3110.353076894686,41.03213993450187,2.1133569169074895,0.005286845997128626
3.2690000000000023,5992.600325377094,5.339757168969727,4293383.375552253,286.0481965570966,3110.907467186711,40.91264239976507,2.1153564193884633,0.005344285840866608
3.3090000000000024,5988.272499054173,5.3518432716206625,4289014.020372667,286.00507594211166,3111.4624522739277,40.79324935659698,2.1173506134927007,0.005401592885351637
3.3490000000000024,5983.957319106212,5.363883086028409,4284640.126519667,285.96187756274264,3112.014638732769,40.67396048157087,2.1193394930256053,0.005458767920055646
3.3890000000000025,5979.6478372532165,5.375906643334143,4280261.683328524,285.9186011555409,3112.5654576737725,40.55477599914481,2.1213230417983064,0.005515811520755364
3.4290000000000025,5975.3467841116535,5.387901457181402,4275878.671296227,285.87524636866465,3113.11431496081,40.43569590637927,2.1233012478004256,0.005572724343219317
3.4690000000000025,5971.052888491343,5.399872858302509,4271491.074405572,285.8318128835823,3113.661464990438,40.316720297050026,2.125274097283021,0.00562950700072847
3.5090000000000026,5966.766550187097,5.411818721330728,4267098.874970971,285.78830036411705,3114.206535132062,40.1978492263719,2.1272415772214437,0.005686160115235446
3.5490000000000026,5962.487218312533,5.42374041042501,4262702.0557888,285.74470847770414,3114.7478013812024,40.07908276735384,2.129203674288783,0.005742684296196091
3.5890000000000026,5958.21216245608,5.43563981974749,4258300.598933244,285.7010368834502,3115.2873746762484,39.96042097938063,2.1311603754236517,0.00579908015246028
3.6290000000000027,5953.944665069565,5.447511482882069,4253894.484408594,285.6572852187107,3115.825027087924,39.84186387342792,2.1331116684524023,0.0058553483053171386
3.6690000000000027,5949.683654679666,5.459359930453605,4249483.69510112,285.61345314823143,3116.360973319381,39.72341154069976,2.135057539767458,0.005911489340395329
3.7090000000000027,5945.429422916224,5.47118333285122,4245068.212436169,285.5695403210444,3116.8951270284037,39.60506403972739,2.136997976364025,0.005967503850056303
3.7490000000000028,5941.181716188873,5.48298253876517,4240648.018223574,285.5255463887785,3117.427528888535,39.48682144428436,2.1389329649749844,0.006023392415531925
3.789000000000003,5936.940503011886,5.4947572887007246,4236223.093893859,285.48147099805595,3117.9581669959284,39.36868382362227,2.1408624924248616,0.006079155614383911
3.829000000000003,5932.705662381219,5.506507778026387,4231793.420811367,285.43731379359315,3118.4870510013907,39.250651250588774,2.1427865454825263,0.006134794017544379
