time,thrust,OF,ox_tank.pressure,ox_tank.temperature,combustion_chamber.temperature,propellant_mass,propellant_CG,combustion_chamber.fuel_grain.geometry.length_regressed
0.007,248.11524068324118,4.855549988336111,5428586.606827782,296.27278289170397,2880.8100036199116,51.96250666826726,1.8991629016891494,1.446075754279645e-05
0.014,1205.1247710204748,4.607448696228932,5427105.837574114,296.26056729697945,3001.137327588741,51.92386261733128,1.8999900061833002,2.88642069997078e-05
0.021,2536.1290213248585,4.5269484416759544,5425706.918996149,296.2490245352691,3028.302153527293,51.88725617985502,1.900767671312724,4.2720688385994215e-05
0.028,3618.8443169679763,4.461756194339853,5424385.24175663,296.23811697030396,3036.862772815414,51.852575497246704,1.901498878444928,5.605206781986006e-05
0.035,4483.134673890681,4.407865817144109,5423132.518318674,296.2277765510954,3038.6628559420114,51.819617273880326,1.902188746389227,6.890614725199535e-05
0.042,5189.663343091284,4.364692210131758,5421939.746705166,296.2179292603056,3037.9369415896804,51.7881597711027,1.9028427631367109,8.133786710879199e-05
0.049,5710.326027708855,4.33133595912123,5420797.940111239,296.2085011407644,3036.4676857708278,51.75798085397001,1.9034663563007455,9.340443305470679e-05
0.056,6120.5161974653565,4.306448703836998,5419698.583260176,296.1994220705742,3033.4176838704607,51.72886940661456,1.9040646304378106,0.00010516192405420307
0.063,6449.859060259271,4.288684356394305,5418633.956029835,296.19062844432307,3031.0333988150323,51.700633533160484,1.9046421854628075,0.00011666260671366648
0.07,6703.542739778765,4.276489209617877,5417597.272232872,296.182064328391,3029.478131809092,51.673104186325375,1.9052030443334842,0.00012795347630848447
0.07700000000000001,6895.714135331769,4.268569243175357,5416582.771986225,296.1736822326496,3028.615093933635,51.64613763225988,1.9057506075407329,0.00013907514576450835
0.08400000000000002,7042.152124044802,4.263871835619054,5415585.688195215,296.1654428415522,3028.3047065734,51.61961474592392,1.9062876798930515,0.00015006171097280304
0.09100000000000003,7153.346538557598,4.261568837646309,5414602.152810211,296.15731424645674,3028.4152079770656,51.593438765252486,1.9068165308096419,0.00016094114859329343
0.09800000000000003,7237.508749033612,4.261031882889599,5413629.07728915,296.14927096354194,3028.833728612375,51.56753236689383,1.9073389681057644,0.00017173599141907553
0.10500000000000004,7301.019757847782,4.261791198473855,5412664.026691385,296.141292897886,3029.48550400508,51.541834556478975,1.9078564142092347,0.00018246412185007516
0.11200000000000004,7348.790215471387,4.26350811016131,5411705.101046582,296.13336436660234,3030.301508550483,51.51629772259798,1.908369977172566,0.000193139563618581
0.11900000000000005,7384.584036556469,4.265934003195811,5410750.828351276,296.12547321717676,3031.2439872896725,51.490884970073374,1.9088805142151632,0.00020377322271076417
0.12600000000000006,7411.28669904404,4.268882646113859,5409800.074465799,296.11761008476833,3032.2781795797055,51.46556786931292,1.9093886849573956,0.00021437352568516108
0.13300000000000006,7431.097280361173,4.272219748165321,5408851.970134955,296.10976779049406,3033.3796768630855,51.440324630519974,1.9098949943841155,0.00022494694479041275
0.14000000000000007,7445.688095746018,4.275846535454909,5407905.851441427,296.1019408503191,3034.5308265984754,51.41513861237384,1.910399827787232,0.00023549843145807427
0.14700000000000008,7456.328715599829,4.279690071722952,5406961.212647716,296.0941250860328,3035.7173898198666,51.389997140131655,1.9109034783735286,0.00024603176237553674
0.15400000000000008,7463.981542180128,4.283696314866269,5406017.669285227,296.0863173206956,3036.931616459788,51.3648905801254,1.9114061688323767,0.00025654981191159526
0.1610000000000001,7469.37564368138,4.287824972507453,5405074.929511146,296.0785151422597,3038.1667085353433,51.33981162137022,1.911908068045982,0.0002670547643778164
0.1680000000000001,7473.062822339587,4.292045986095308,5404132.772053274,296.07071672152654,3039.4174810654795,51.31475472233051,1.9124093039391656,0.0002775482779321424
0.1750000000000001,7475.460468718182,4.296336854581261,5403191.029288113,296.06292067245147,3040.680084626212,51.28971568643395,1.9129099733269488,0.0002880316105784784
0.1820000000000001,7476.884169461039,4.300680694492439,5402249.57431191,296.0551259453943,3041.9516504813228,51.26469133776586,1.91341014943068,0.0002985057165563965
0.1890000000000001,7477.572462298769,4.305064815396047,5401308.311091147,296.0473317457838,3043.2300346900033,51.239679274032156,1.9139098875986296,0.0003089713198294988
0.19600000000000012,7477.705604509274,4.309479665519131,5400367.16697474,296.03953747227564,3044.513631389715,51.21467767878437,1.9144092296511621,0.0003194289699752246
0.23600000000000013,7477.4197882279095,4.313918047893079,5399426.087010691,296.0317426698064,3045.801235650704,51.18968517892047,1.9149082071761536,0.00032987908461155034
0.27600000000000013,7467.524954207556,4.320824029837168,5394041.181586348,295.98712002641236,3047.7402636171223,51.04693757363869,1.9177547702826832,0.00038950507710241154
0.3160000000000001,7456.920873801748,4.347467218670261,5388651.89656861,295.94242627405725,3053.9653651437266,50.904326868712666,1.9205931048838694,0.0004489337044763275
0.3560000000000001,7449.793216591423,4.372383806057023,5383257.470710991,295.89765495498074,3059.280151333483,50.761834668328184,1.9234236178342685,0.0005081720714165932
0.3960000000000001,7440.96364053603,4.3991017251710955,5377859.594360477,295.85281996214746,3064.967373358637,50.61950335980207,1.926245330960277,0.0005672093615392144
0.43600000000000005,7433.060584823449,4.424888365644535,5372457.222259551,295.8079124832371,3070.458015112267,50.47730748715916,1.9290588137493028,0.0006260547210793959
0.47600000000000003,7424.741874629562,4.451231168895186,5367050.857029289,295.76293656018055,3076.062840530686,50.33525993850639,1.9318637631176725,0.0006847059967925422
0.516,7416.701958165754,4.477360783540155,5361640.208384746,295.71788964353357,3081.621524974747,50.19335400202962,1.9346603216121505,0.0007431667588814755
0.556,7408.580962688191,4.503679131885493,5356225.397541336,295.672772605801,3087.2177928671904,50.051593130131984,1.937448401708155,0.0008014375792500718
0.5960000000000001,7400.563745499372,4.529978001554234,5350806.332521571,295.6275845437191,3092.8083082357257,49.909975526731465,1.9402280349561285,0.0008595205378197066
0.6360000000000001,7392.55381011836,4.556366642445036,5345383.031583391,295.58232547142086,3098.4158084502915,49.76850211367514,1.9429991918796146,0.0009174168997058701
0.6760000000000002,7384.599947326216,4.5827891737199655,5339955.455809602,295.53699492531103,3104.02868094545,49.62717241388813,1.945761874833675,0.000975128313521508
0.7160000000000002,7376.675983604614,4.6092755675165495,5334523.595730224,295.4915926864944,3109.6531616190423,49.485986677837595,1.9485160701261195,0.001032656194631532
0.7560000000000002,7369.655683005154,4.63581117290487,5329087.426523196,295.44611840684365,3114.9281586414095,49.34494478545419,1.9512617726727512,0.0010900020436195746
0.7960000000000003,7365.774048217344,4.662521257344365,5323646.931179897,295.4005718024983,3118.858518250072,49.2040468128507,1.9539989732843603,0.0011471672830199004
0.8360000000000003,7361.262232263412,4.689593256828352,5318201.95195866,295.35495140903714,3122.834594776117,49.06328942228919,1.9567277388763582,0.0012041542911224777
0.8760000000000003,7357.113548202293,4.716284722779948,5312752.02172315,295.30925316196203,3126.75489176389,48.92266180130641,1.9594483016288202,0.0012609675503805276
0.9160000000000004,7352.955676752045,4.743221279327727,5307297.333434608,295.26347852533775,3130.708921777314,48.782169196368905,1.9621605368015942,0.0013176069218443507
0.9560000000000004,7348.971622125589,4.770118608820765,5301837.793859612,295.21762656325825,3134.6561870369737,48.6418099073133,1.9648644741708972,0.0013740742346564766
0.9960000000000004,7345.073666240321,4.79711555594304,5296373.448143468,295.1716975003081,3138.61647523749,48.50158558947294,1.9675600695441613,0.0014303703431878482
1.0360000000000005,7341.304049255105,4.824145488113321,5290904.274448544,295.1256909980245,3142.5803170427575,48.361496279027605,1.9702473148373254,0.0014864965454143705
1.0760000000000005,7337.658572630214,4.851241703053848,5285430.283075331,295.0796069874445,3146.551302828932,48.22154278988192,1.9729261851399507,0.0015424539015300377
1.1160000000000005,7334.030126230389,4.878456342598222,5279951.468302603,295.0334452642542,3150.5365448148827,48.08172555104884,1.9755966643210354,0.0015982435641958403
1.1560000000000006,7330.4559034924005,4.905718801869418,5274467.755626073,294.98720504316503,3154.5267160087,47.94204334587579,1.9782587724395966,0.00165386713206359
1.1960000000000006,7326.724777123106,4.933029271044226,5268979.105281395,294.9408858295589,3158.48549035031,47.80249580223733,1.9809125111199042,0.0017093259466395064
1.2360000000000007,7313.522040828889,4.96043986351185,5263485.501057075,294.89448732613596,3161.067038095256,47.663083118118855,1.9835578697091742,0.001764621172024212
1.2760000000000007,7298.175011354343,4.989005572252834,5257986.885041921,294.84800888192393,3163.7384957516147,47.52380450152566,1.986194859223263,0.0018197542327132732
1.3160000000000007,7283.838470865551,5.0164975900789335,5252482.006345903,294.8014397475133,3166.311231608237,47.38463079091887,1.9888241042216397,0.0018747344424641973
1.3560000000000008,7269.239546692432,5.044487793037393,5246971.287918915,294.75478331573197,3168.927809539456,47.24557278649341,1.9914453614762797,0.0019295599149347317
1.3960000000000008,7254.847462505111,5.072393375040401,5241454.535174142,294.7080377555702,3171.535421569288,47.10662657950576,1.994058706666981,0.0019842328570250103
1.4360000000000008,7240.488030924052,5.100432329204605,5235931.7825896805,294.6612031732437,3174.153809429816,46.96779371558952,1.996664097687536,0.002038753940950826
1.4760000000000009,7226.224029385755,5.128524701567643,5230402.979684064,294.6142789538157,3176.7757339774294,46.82907372892642,1.9992615359696027,0.002093124384064965
1.516000000000001,7212.031312547881,5.15670097720862,5224868.107051312,294.56726474426966,3179.4039521522272,46.690466896027004,2.001851007103241,0.0021473451836886647
1.556000000000001,7197.91752702525,5.184950858673259,5219327.133642198,294.5201600912724,3182.0375310280547,46.55197322371127,2.0044325026016647,0.0022014173980872387
1.596000000000001,7183.878758986343,5.21327905536521,5213780.032433035,294.4729645741259,3184.6768946156417,46.413592819633834,2.0070060119426683,0.0022553420441617355
1.636000000000001,7172.6305416458945,5.241684777386418,5208226.77469896,294.42567775611496,3187.03534936384,46.27532575709998,2.0095715254579254,0.0023091201350413566
1.676000000000001,7169.1644812230425,5.270250462365658,5202667.332098516,294.3782992022102,3188.5769659611833,46.137172124183195,2.012129033278044,0.0023627526667865484
1.716000000000001,7165.499404497583,5.299048244967795,5197101.589971653,294.3308277392652,3190.1248452970644,45.99912999801276,2.014678568148546,0.0024162411718261154
1.7560000000000011,7162.028167566104,5.327719516432232,5191529.301793846,294.28326106399817,3191.66545789592,45.86119440122335,2.017220226936772,0.002469587998082691
1.7960000000000012,7158.6591042003265,5.356543698319486,5185950.512249785,294.23559935426624,3193.2131408822656,45.723367178120675,2.019753962091705,0.002522793614745171
1.8360000000000012,7155.423426669337,5.385428054415753,5180365.167046258,294.18784194169615,3194.763116382397,45.585647866514094,2.0222797749094115,0.002575859109009409
1.8760000000000012,7152.31407198068,5.414403594038633,5174773.243671539,294.1399884276114,3196.3169787060497,45.448036751379846,2.0247976510167596,0.002628785352715399
1.9160000000000013,7149.336125328835,5.443461265041249,5169174.709142887,294.09203832212023,3197.874259049043,45.31053387995402,2.027307581125481,0.0026815732708815186
1.9560000000000013,7146.490980018007,5.472604906787423,5163569.533565193,294.043991160003,3199.4351523124387,45.17313937722449,2.0298095543933727,0.0027342237561236585
1.9960000000000013,7143.781291158513,5.501834236016095,5157957.6858012285,293.9958464636506,3200.99964104767,45.03585334539415,2.032303560528855,0.0027867376961369108
2.0360000000000014,7141.209440779853,5.531150285019158,5152339.134845173,293.94760375480735,3202.5677754384833,44.8986758957418,2.034789589119682,0.002839115965259995
2.0760000000000014,7133.114421121053,5.5605536726496965,5146713.849387126,293.8992625508202,3203.456766429887,44.76160713856853,2.0372676298384977,0.0028913594273827226
2.1160000000000014,7123.243566530476,5.590412796744178,5141081.797948303,293.8508223657798,3204.2038226968816,44.62464718634459,2.039737672373031,0.0029434689352824017
2.1560000000000015,7113.4385712891,5.6200848666500685,5135442.5771849,293.802279509559,3204.945098942862,44.4877876474001,2.0421998815806104,0.0029954476049710395
2.1960000000000015,7103.646363724557,5.64987789373508,5129796.1877856385,293.7536337617013,3205.6888934810486,44.35102943000339,2.0446542296390833,0.0030472960433909346
2.2360000000000015,7093.875043402619,5.67975975271278,5124142.589750424,293.70488454980494,3206.4343699603614,44.21437251533885,2.047100707925583,0.003099015096209503
2.2760000000000016,7084.122850796609,5.709736484741233,5118481.748914112,293.6560313496954,3207.179170379478,44.07781702499844,2.0495393049599935,0.0031506055618399803
2.3160000000000016,7074.396435918609,5.739803310848222,5112813.629640932,293.60707362249775,3207.9253933619143,43.94136305378246,2.0519700098451894,0.003202068236322797
2.3560000000000016,7064.690386804851,5.7699674458597245,5107138.200736366,293.5580108656978,3208.6735189935093,43.8050108040055,2.0543928095242823,0.003253403877839033
2.3960000000000017,7055.004970126848,5.800226982105471,5101455.42747605,293.5088425442962,3209.423492541345,43.6687604041917,2.056807692482334,0.003304613255064162
2.4360000000000017,7045.339740283841,5.830583069670132,5095765.275341179,293.4595681230256,3210.1753385477446,43.53261199417797,2.0592146470013777,0.0033556971246744365
2.4760000000000018,7028.987724464317,5.8610364054248025,5090067.709489486,293.4101870617572,3210.4731793634483,43.39656571313985,2.0616136614011245,0.00340665623467445
2.516000000000002,7010.29288884732,5.891817238262482,5084362.694851347,293.36069881630937,3210.6118861373157,43.260621701816945,2.064004723990154,0.0034574913239525822
2.556000000000002,6992.027517888552,5.9225613600008655,5078649.973118688,293.3111009014027,3210.749379955178,43.12477509743029,2.066387923605417,0.003508204436415304
2.596000000000002,6974.178691267389,5.953389138660316,5072929.492700594,293.2613926199728,3210.8872197697337,42.98902571394778,2.0687632543744368,0.0035587963724983576
2.636000000000002,6956.707391685194,5.98432816111776,5067201.223786043,293.2115734617991,3211.0254240156514,42.85337386195279,2.0711307004398436,0.0036092677939194907
2.676000000000002,6939.605256065723,6.015368788269833,5061465.125133628,293.1616428151022,3211.163950827729,42.71781960287537,2.073490250948994,0.00365961941972482
2.716000000000002,6922.85711259678,6.046514181043353,5055721.157848912,293.1116000861794,3211.302812218716,42.58236305829464,2.0758418938368175,0.003709851945203085
2.756000000000002,6906.449980136897,6.077764762285071,5049969.282265741,293.0614446722716,3211.4420062775116,42.44700434011652,2.078185617222395,0.0037599660603201035
2.796000000000002,6890.371386693153,6.109121427197288,5044209.458493311,293.01117596629405,3211.581533760483,42.311743562879016,2.0805214091596027,0.0038099624466218125
2.836000000000002,6873.646000171521,6.140585010336381,5038441.646333448,292.9607933560886,3211.7158462786874,42.176580841972694,2.0828492576694746,0.003859841777821375
2.876000000000002,6861.584172562967,6.172159285446185,5032665.805286427,292.91029622444586,3211.400115714559,42.04151629384174,2.08516915073309,0.003909604719866245
2.916000000000002,6849.256157043938,6.204034748693641,5026881.891797386,292.85968392497097,3211.078690618378,41.90654997536657,2.08748107747833,0.00395925194672367
2.956000000000002,6837.028447711906,6.235839034577436,5021089.682719339,292.8089542351066,3210.7583438156557,41.77167800171378,2.0897851041599425,0.004008785142130402
2.996000000000002,6824.808442859358,6.267796920552843,5015289.18480898,292.7581069403773,3210.4367291300287,41.63690157513422,2.0920811968553554,0.004058204665142519
3.0360000000000023,6812.609493328035,6.299860911421417,5009480.3489422025,292.7071413347563,3210.1142554476146,41.50222067315572,2.0943693456807373,0.004107511184719942
3.0760000000000023,6800.430417914707,6.332038098272037,5003663.133614704,292.6560567763608,3209.7908698165106,41.36763544927689,2.0966495372690206,0.004156705317514572
3.1160000000000023,6788.270773219266,6.364329142346238,4997837.49652915,292.6048526137532,3209.4665604151937,41.233146047735715,2.0989217584000124,0.0042057876758360545
3.1560000000000024,6776.130347607428,6.396734803292249,4992003.3949479265,292.55352818899615,3209.1413180669097,41.09875261137576,2.1011859958429646,0.004254758865718868
3.1960000000000024,6764.008852990374,6.429256009448941,4986160.785840726,292.5020828389164,3208.8151316728504,40.964455284961105,2.103442236289312,0.004303619486170608
3.2360000000000024,6759.3737043897245,6.46189364998043,4980309.625831691,292.450515894608,3208.2877609214293,40.830254214104684,2.1056904663707496,0.004352370129545771
3.2760000000000025,6760.013323689343,6.494724972909992,4974449.871203674,292.39882668143673,3207.6203881538345,40.69614954545084,2.107930672652989,0.004401011381595505
3.3160000000000025,6760.974824236224,6.527657672122436,4968581.408737774,292.34701390811176,3206.950736938721,40.56213993396889,2.110162870155374,0.004449544201110633
3.3560000000000025,6762.326348715486,6.560677757890354,4962704.163526011,292.2950766170571,3206.278787085508,40.4282248810558,2.1123870574038106,0.004497969323384713
3.3960000000000026,6764.082768806847,6.593827664506474,4956818.099568017,292.2430141911915,3205.6024372121074,40.29440473860813,2.114603216571329,0.004546287261042645
3.4360000000000026,6766.2588120688015,6.627098866898334,4950923.169309341,292.19082590852304,3204.924091134412,40.1606796178655,2.1168113343755435,0.004594498582001522
3.4760000000000026,6768.873417031795,6.660492110457072,4945019.325854852,292.13851104993705,3204.2437505525754,40.027049653452664,2.1190113970229816,0.004642603842350979
3.5160000000000027,6771.945325552783,6.694009257630195,4939106.522795291,292.08606889766213,3203.5613765049907,39.893514999539576,2.121203390284773,0.004690603587453454
3.5560000000000027,6775.494273616319,6.7276510488959245,4933184.713099534,292.0334987254294,3202.876953187174,39.76007580613886,2.1233872999443997,0.004738498358035689
3.5960000000000027,6769.078280832343,6.761418464196515,4927253.84937892,291.9807998007748,3202.0642450619753,39.62673222488493,2.125563111685547,0.0047862886888075835
3.636000000000003,6752.418537747896,6.795347467244519,4921313.88385511,291.9279713847158,3201.1223513234013,39.49348440845033,2.1277308111006943,0.004833975108691005
3.676000000000003,6735.791770582602,6.8294078034902155,4915364.737636061,291.875012458083,3200.177043615153,39.36033186026094,2.1298903958037365,0.004881558303939809
3.716000000000003,6719.245960104919,6.863571955945463,4909406.338530802,291.8219220573048,3199.229570890341,39.22727424048831,2.1320418602809554,0.004929038915185662
3.756000000000003,6702.765458629219,6.8978716591755385,4903438.64364588,291.76869947627176,3198.2790528398177,39.094311840760994,2.1341851871364548,0.004976417419170822
3.796000000000003,6686.350820714812,6.932302287639366,4897461.602657392,291.71534393950947,3197.325596802674,38.964112216300265,2.136396684253723,0.005023694324508774
