time,thrust,OF,ox_tank.pressure,ox_tank.temperature,combustion_chamber.temperature,propellant_mass,propellant_CG,combustion_chamber.fuel_grain.geometry.length_regressed
0.007,242.08639074891056,3.859539992811847,4392531.765527962,287.01794964771125,2745.3499979669436,50.62343935749592,1.9986586842478307,1.6110749075985522e-05
0.014,1091.8366450661608,3.6128749048769406,4391445.666323649,287.0074161330998,2754.463341703215,50.58703150521787,1.999274571724043,3.212875752830182e-05
0.021,2276.341436824078,3.5727605375868117,4390435.334531284,286.99761569034257,2757.657078546231,50.55308647205233,1.9998448305784888,4.7228484087446434e-05
0.028,3220.081574185311,3.5438290074074,4389493.98275531,286.9884828443919,2754.6512777022504,50.521387120768836,2.0003737168907154,6.148180715789963e-05
0.035,3963.4185059456618,3.5241049490971825,4388613.022606927,286.97993457571215,2751.422861870987,50.49165747444156,2.0008665119469606,7.498461151328811e-05
0.042,4525.903099724401,3.512523574025654,4387783.476647155,286.9718840187824,2749.6911632614165,50.463608080080625,2.001328675665392,8.784041266623574e-05
0.049,4960.72940669007,3.5076215454520483,4386996.61690681,286.96424666545505,2749.7503915607176,50.436956675719635,2.0017654710397323,0.00010015250109665672
0.056,5290.326607321182,3.5076376409245844,4386244.397481356,286.9569445730996,2751.29054891367,50.41144236267954,2.002181716155325,0.00011201816435070291
0.063,5538.3975604558855,3.5109098416469675,4385519.733722524,286.94990908496857,2753.8326616746554,50.38683489088753,2.0025816294626035,0.00012352458499931076
0.07,5724.009928773028,3.5160629911324865,4384816.618287372,286.943081966776,2756.915327542878,50.36293865915172,2.0029687714197117,0.00013474674098431334
0.07700000000000001,5862.208145497049,3.5221059508520103,4384130.11525682,286.93641535855056,2760.1839245974975,50.33959271592102,2.0033460565117274,0.00014574692854858027
0.08400000000000002,5964.679918315775,3.5284032630354543,4383456.270972058,286.92987091647706,2763.4166805768,50.31666799541091,2.0037158121833727,0.0001565754788454995
0.09100000000000003,6040.388243593124,3.534599669222371,4382791.982317569,286.92341854001864,2766.499360783379,50.294063115209056,2.004079860744643,0.0001672721543107675
0.09800000000000003,6096.139805070894,3.5405290042658075,4382134.85198816,286.9170349712107,2769.380349896261,50.27169970867416,2.0044396072623702,0.00017786782290531492
0.10500000000000004,6137.06095563213,3.54614010550912,4381483.050460146,286.9107024578225,2772.062549960976,50.24951794823592,2.0047961223212716,0.0001883861254475444
0.11200000000000004,6166.991208976802,3.5514429907404965,4380835.194435851,286.90440757549896,2774.5644121642777,50.227472589379396,2.0051502143275055,0.0001988449822353617
0.11900000000000005,6188.792474110493,3.556475581383056,4380190.245361965,286.8981402440819,2776.9125439233726,50.20552966064375,2.0055024895475,0.00020925787176915325
0.12600000000000006,6204.590434417069,3.561284295736226,4379547.427619134,286.8918929344,2779.135848923652,50.18366379139785,2.005853400323849,0.00021963487302047204
0.13300000000000006,6215.9598598913335,3.5659141743670193,4378906.164233207,286.88566004481174,2781.261886080129,50.1618561099932,2.006203282858722,0.00022998349060894316
0.14000000000000007,6224.065390648676,3.5704046246077854,4378266.027262404,286.8794374199851,2783.3126944615683,50.140092620801845,2.0065523863108097,0.00024030929484513956
0.14700000000000008,6229.7669729522295,3.5747882501143162,4377626.700003734,286.8732219842595,2785.3061566434535,50.118362967485986,2.00690089492482,0.00025061641096703227
0.15400000000000008,6233.698897417049,3.579091047931168,4376987.94846131,286.86701146481823,2787.256360877392,50.09665949921506,2.0072489447164745,0.0002609078893098344
0.1610000000000001,6236.328641718677,3.5833332661209214,4376349.599959855,286.8608041841584,2789.174194221753,50.074976570713005,2.0075966359663457,0.0002711859831662585
0.1680000000000001,6238.000538111912,3.5875304242072916,4375711.527193754,286.8545989052867,2791.0679579119806,50.05331002024619,2.0079440425303483,0.000281452356191267
0.1750000000000001,6238.968101979935,3.5916942851125238,4375073.636373879,286.8483947166701,2792.9439219190126,50.03165678176809,2.008291218753469,0.00029170823658177826
0.1820000000000001,6239.417923625806,3.5958336941153815,4374435.858443067,286.84219094696107,2794.8067900997244,50.010014597531296,2.0086382045904023,0.00030195453134560575
0.1890000000000001,6239.4873021037,3.599955264956375,4373798.142578684,286.8359871019174,2796.6600742733367,49.98838180557085,2.008985029390905,0.000312191910803897
0.22900000000000012,6239.277247750454,3.6040639227068914,4373160.451393828,286.82978281780777,2798.506387117324,49.96675718278576,2.0093317146941416,0.00032242087097965533
0.26900000000000013,6230.974651194885,3.611699116951119,4369510.467079977,286.7942579761263,2801.903996715747,49.843253459317914,2.0113114110384496,0.000380770629547647
0.3090000000000001,6222.647861558486,3.6353274234041963,4365856.3562085405,286.75867064815566,2812.489747466189,49.719856357695065,2.0132893667841567,0.00043891017364128043
0.3490000000000001,6218.603412930903,3.656593125920329,4362198.108750425,286.7230206298749,2822.0306636763835,49.5965652232006,2.015265551946439,0.0004968416327167105
0.38900000000000007,6211.743663123666,3.6814288400905326,4358538.136129677,286.68733133628035,2833.1623848734207,49.47345740555455,2.0172385528578154,0.0005545366185950467
0.42900000000000005,6207.3588580128535,3.703614168466172,4354874.835538412,286.65158706058537,2843.1128717350894,49.350480649084474,2.0192092575354983,0.0006120175622057783
0.46900000000000003,6201.483572486064,3.7280916604904335,4351209.600850636,286.6158013238047,2853.7569202494374,49.2276792535464,2.0211768411491615,0.0006692691071062049
0.509,6199.281338213349,3.7508790696568175,4347541.319138442,286.5799631825843,2862.042143290912,49.10501691662649,2.0231419095611085,0.0007263073008819252
0.549,6195.042370497945,3.775721038344549,4343870.802720928,286.5440804928344,2871.063502391643,48.98251916408546,2.025103972720688,0.0007831241037620109
0.5890000000000001,6192.2516411513,3.7985529447006545,4340196.734129661,286.50814028989765,2879.35881430547,48.86014338585018,2.0270637489175423,0.0008397378267604927
0.6290000000000001,6188.428344450554,3.822950150605911,4336520.058371983,286.472151729039,2888.216190903734,48.73791935878093,2.0290206741187733,0.0008961387379292838
0.6690000000000002,6185.494390706877,3.8462070014263112,4332840.060725218,286.43610772725407,2896.66120371484,48.61582388718092,2.03097512337576,0.0009523375191883928
0.7090000000000002,6181.978369449781,3.8704225154883,4329157.310766682,286.40001377462573,2905.4499209900896,48.4938747119033,2.032926747380714,0.0010083290705290033
0.7490000000000002,6179.009451683566,3.893973725958171,4325471.390634469,286.3638656882213,2913.9983773356043,48.372058178597705,2.0348757531728587,0.0010641203172704597
0.7890000000000003,6175.719310275692,3.9181191116880947,4321782.642731309,286.32766673748057,2922.759258200905,48.25038478057381,2.03682192108148,0.0011197089142636206
0.8290000000000003,6172.775442382667,3.941883151821149,4318090.822660551,286.2914144361666,2931.3817921899804,48.12884642726817,2.0387653606869107,0.0011750995879843999
0.8690000000000003,6169.663073603675,3.9660243403278437,4314396.138631091,286.25511074030646,2940.138641046134,48.007449354834314,2.0407059288381166,0.0012302915838146632
0.9090000000000004,6166.77868736667,3.9899535721682806,4310698.448448696,286.21875416454577,2948.8181183203774,47.88618874714839,2.0426436782208106,0.0012852883221469694
0.9490000000000004,6163.815585995407,4.014130325206491,4306997.880686797,286.18234588447734,2957.58529344236,47.765068331203274,2.044578511156494,0.0013400899626926062
0.9890000000000004,6158.852949962279,4.038197137172434,4303294.3535869615,286.1458850073067,2965.35010131581,47.64408522803321,2.0465104470972704,0.001394699139302796
1.0290000000000004,6151.0233012558365,4.062811905042107,4299587.948165874,286.10937224193975,2972.2864122548176,47.52324167924649,2.0484394156488985,0.0014491165327776795
1.0690000000000004,6143.080610612749,4.087234599420334,4295878.272547684,286.0728036359566,2979.165333985614,47.402525160830756,2.050365607073636,0.0015033483328335032
1.1090000000000004,6135.238997034827,4.111588354337827,4292165.236237745,286.0361782004323,2986.0233328777113,47.281932639215235,2.0522890445571944,0.0015573971208009785
1.1490000000000005,6127.389923002225,4.1360509789724285,4288448.877761733,285.9994962177058,2992.9101277693803,47.16146512455879,2.0542096804740106,0.00161126394143311
1.1890000000000005,6119.615583656662,4.160521935645188,4284729.178051579,285.9627574017533,2999.797784082906,47.04112184140666,2.056127499078634,0.001664950486188199
1.2290000000000005,6111.85630527981,4.185077901747872,4281006.162974423,285.92596190998887,3006.7076313381854,46.920903421349585,2.0580424603001823,0.0017184579029845938
1.2690000000000006,6104.154301428554,4.2096642533505335,4277279.825904213,285.8891095787164,3013.624494514626,46.80080949560388,2.0599545420865804,0.0017717876924766933
1.3090000000000006,6096.478241171461,4.234321477376333,4273550.183337276,285.8522004726416,3020.5596281888074,46.68084042072494,2.061863710053784,0.0018249410677988913
1.3490000000000006,6088.849887576918,4.259020912426483,4269817.234653642,285.81523448702,3027.5050790476357,46.560996032069106,2.0637699393810736,0.0018779194165745876
1.3890000000000007,6081.252683175194,4.2837841618516,4266080.991222952,285.77821163561026,3034.466850168654,46.4412765435491,2.0656731990021404,0.0019307239688474104
1.4290000000000007,6073.6977659600025,4.308596272795924,4262341.455352039,285.74113184224666,3041.440798170569,46.32168189779712,2.067573463001548,0.001983356036951321
1.4690000000000007,6067.252206533624,4.33346888711878,4258598.635529836,285.7039950918555,3048.043127232236,46.20221223564061,2.069470702372785,0.002035816843210545
1.5090000000000008,6064.738595440054,4.358559812682001,4254852.535394804,285.66680132108144,3053.218057097815,46.08286755674808,2.071364890958467,0.0020881076447686157
1.5490000000000008,6061.585298706709,4.384113988593678,4251103.019029823,285.62954907936256,3058.4809767606966,45.96364360862322,2.073256077299205,0.0021402312279997938
1.5890000000000009,6058.818468271247,4.408995446630373,4247349.630755233,285.5922337321748,3063.6054499945394,45.84452643460854,2.0751444796047953,0.0021921938689597356
1.629000000000001,6055.895176410207,4.434390191778956,4243592.634258776,285.5548577915348,3068.830907766427,45.72552406846414,2.0770299318666616,0.0022439938225877506
1.669000000000001,6053.184610565933,4.459542518918527,4239831.855856967,285.5174194205804,3074.005815794452,45.60663121477614,2.078912501310879,0.0022956341684695304
1.709000000000001,6050.445156033751,4.484959323418039,4236067.41488397,285.4799196973679,3079.232704676893,45.48785150433617,2.0807920996271907,0.0023471147375768377
1.749000000000001,6047.836679964032,4.510304093560788,4232299.236465573,285.44235776618547,3084.4435496287474,45.36918267485145,2.0826687416481056,0.002398437476573804
1.789000000000001,6045.254578094512,4.535801715344934,4228527.37417078,285.4047340505812,3089.6837940573546,45.25062636627623,2.08454237448042,0.002449602910505775
1.829000000000001,6042.768307465803,4.561303319778955,4224751.796131396,285.3670481220718,3094.9233749391833,45.13218163946785,2.0864129904708095,0.0025006124785802637
1.869000000000001,6040.332898707256,4.586908697931215,4220972.526716678,285.3293001128388,3100.1824394444893,45.01384926136372,2.08828055256421,0.0025514669936914794
1.9090000000000011,6037.978615721068,4.6125523005119895,4217189.552746208,285.29148977990127,3105.447764264851,44.89562887333073,2.0901450435794753,0.002602167658543475
1.9490000000000012,6034.701951128353,4.63827845726716,4213402.885549348,285.25361712475836,3110.2166163521224,44.77752086128227,2.0920064336817674,0.0026527153964375576
1.9890000000000012,6028.953399012666,4.6643105785532875,4209612.519929173,285.2156819833704,3113.885405983683,44.6595251212345,2.0938647018273073,0.00270311129244711
2.0290000000000012,6022.668243664582,4.690643116234532,4205818.255784663,285.1776822385366,3117.5894487851656,44.54163573794405,2.0957199278888985,0.002753358476168441
2.0690000000000013,6016.681441926692,4.716476144112878,4202019.744138578,285.13961427473424,3121.2231786993048,44.423842410542754,2.0975722675574158,0.002803461596241447
2.1090000000000013,6010.55527149928,4.742697369248135,4198217.166586342,285.1014797892501,3124.908953538471,44.306150704489355,2.0994216018347256,0.002853419663199321
2.1490000000000014,6004.551410765796,4.768799378654001,4194410.412078107,285.06327754605866,3128.577019090762,44.18855746243493,2.101267962983094,0.002903234761736497
2.1890000000000014,5998.514902034447,4.795086334348613,4190599.5441033994,285.02500805902406,3132.2691757220996,44.0710647303462,2.103111293501069,0.0029529071282986784
2.2290000000000014,5992.536753249693,4.821378218534273,4186784.522487878,284.9866708012238,3135.9606970141676,43.95367147982265,2.1049515892598785,0.003002438071154249
2.2690000000000015,5986.562904362855,4.847782737114913,4182965.3680711566,284.94826585794783,3139.666369441511,43.83637849873264,2.1067888150007374,0.003051828249078869
2.3090000000000015,5980.624731423208,4.874236846178588,4179142.065343951,284.90979294871494,3143.377542039717,43.719185505002926,2.1086229541533417,0.003101078685369866
2.3490000000000015,5974.703381854153,4.900778680806625,4175314.6199276918,284.8712520050177,3147.0994447270155,43.6020928472814,2.110453979499778,0.003150190171881175
2.3890000000000016,5968.809500628269,4.92738651529206,4171483.0246959073,284.832642829552,3150.82909887422,43.485100504348914,2.1122818704120214,0.003199163619222773
2.4290000000000016,5958.945085856441,4.954073990390234,4167647.2797172195,284.7939652969373,3153.4649353066206,43.36820867295076,2.1141066027275017,0.0032479998517236644
2.4690000000000016,5947.34465526137,4.981480155426004,4163807.3805371798,284.75521923568175,3155.904244951665,43.25141742296694,2.1159281546760846,0.003296699727736929
2.5090000000000017,5936.114067912601,5.008277159219714,4159962.825123709,284.7163994477648,3158.2871536683365,43.13471230404513,2.117746753468016,0.0033452691117874123
2.5490000000000017,5924.799360389551,5.035387293483451,4156113.741595266,284.6775070901196,3160.6960583217146,43.01809734378617,2.119562309275022,0.0033937074474326284
2.5890000000000017,5913.621279082368,5.062454579643585,4152260.05207683,284.63854123916155,3163.10023766526,42.90157055544361,2.1213748355577504,0.0034420162493010937
2.629000000000002,5902.465902691754,5.089666613953666,4148401.7873733193,284.5995020686497,3165.5158919908877,42.785133129316335,2.123184291546641,0.0034901959260811113
2.669000000000002,5891.390432597593,5.116927826279839,4144538.9223119556,284.5603891856989,3167.934768482598,42.66878463189301,2.1249906644350123,0.003538247436964018
2.709000000000002,5880.365009857219,5.144288080901216,4140671.460033149,284.521202483174,3170.3611675928673,42.552525458825464,2.1267939274184204,0.0035861714471917125
2.749000000000002,5869.40395858539,5.171722740570503,4136799.388940782,284.4819417040308,3172.7929616952674,42.436355584443675,2.1285940610589607,0.003633968757908056
2.789000000000002,5858.4992601533995,5.19924522774649,4132922.704627562,284.4426066633359,3175.2313054697156,42.32027519739623,2.130391042431008,0.003681640088296313
2.829000000000002,5847.654176948253,5.226849583006415,4129041.3987425603,284.4031971354424,3177.6756826330775,42.20428437848209,2.1321848506118237,0.003729186185989374
2.869000000000002,5843.308383789597,5.254539694390413,4125155.4646296143,284.3637129111569,3179.3648942424484,42.08838326348318,2.133975463904188,0.003776607771573687
2.909000000000002,5840.986692079702,5.282798179212225,4121264.894481668,284.3241537688509,3180.7936099700964,41.97257196110975,2.135762861229516,0.0038239055666966
2.949000000000002,5838.722648345812,5.310718276442202,4117369.3232214744,284.2845158495793,3182.203354526677,41.856840371233275,2.1375471946062423,0.0038710837369820305
2.989000000000002,5836.552033444255,5.338775457424929,4113468.771222531,284.2447992095069,3183.619179750869,41.741189477440145,2.139328427893801,0.003918142673059699
3.029000000000002,5834.48617440066,5.366905567750247,4109563.2176679894,284.2050034849363,3185.0379026760634,41.625619089854816,2.141106544989596,0.003965083155558683
3.069000000000002,5832.522441980707,5.395133927701174,4105652.6562387627,284.1651284588571,3186.460758744122,41.51012943941181,2.1428815227987963,0.004011905815412946
3.109000000000002,5830.66474032552,5.423450599303539,4101737.0741380355,284.12517384735503,3187.887258732403,41.39472057869648,2.1446533413757995,0.0040586113363928495
3.1490000000000022,5828.914335645818,5.451860750188895,4097816.461030961,284.08513939068973,3189.317651700975,41.279392636808666,2.1464219796108823,0.0041052003692768286
3.1890000000000023,5827.273688579366,5.480363081251774,4093890.8052242403,284.04502481432604,3190.75187060679,41.1641457106518,2.1481874170638395,0.0041516735685479525
3.2290000000000023,5825.7840106967205,5.508959055906663,4089960.0952919372,284.0048298455102,3192.189533214203,41.0489799111073,2.149949633181924,0.004198031576988567
3.2690000000000023,5824.074661363297,5.537648490046171,4086024.3193873125,283.9645542062293,3193.5937475107307,40.93389534352876,2.15170860762582,0.004244275032325193
3.3090000000000024,5816.970139478069,5.566451890667495,4082083.465875431,283.92419761967113,3194.2567357847743,40.81889212557702,2.1534643199672447,0.0042904045613824104
3.3490000000000024,5809.389333354225,5.595795736844798,4078137.509131115,283.88375966463167,3194.926051977857,40.70396998880814,2.1552167563601476,0.004336420912463262
3.3890000000000025,5802.016342435015,5.624674879158072,4074186.110967156,283.8432367119281,3195.5851086225207,40.58911992524742,2.1569660492372975,0.004382327721991274
3.4290000000000025,5794.587977130217,5.653880000646684,4070229.3951326082,283.8026298641497,3196.2510441713475,40.47434590899013,2.158712113500596,0.0044281243044574
3.4690000000000025,5787.197315063515,5.683102878502844,4066267.297957095,283.761938301356,3196.917040966603,40.359646665150464,2.1604549520566994,0.004473811710261432
3.5090000000000026,5779.811785233152,5.712454518712723,4062299.822716405,283.7211618893329,3197.5855601970416,40.24502279913449,2.1621945364587267,0.004519390360689131
3.5490000000000026,5772.442320636323,5.741897114864661,4058326.949020107,283.68030024978196,3198.255757951728,40.13047426182068,2.1639308492911673,0.004564860887439466
3.5890000000000026,5765.084945753229,5.771444649978132,4054348.6643279577,283.6393530839343,3198.9279421201554,40.01600122953045,2.1656638694701478,0.004610223841815281
3.6290000000000027,5757.74075553057,5.801093275234197,4050364.953107626,283.59832006111986,3199.6020235696997,39.90160380191061,2.16739357728085,0.004655479794503237
3.6690000000000027,5750.40913828751,5.830845237731869,4046375.8005321864,283.5572008567747,3200.278048972487,39.78728210478737,2.1691199526614287,0.0047006293017766215
3.7090000000000027,5736.946243389526,5.8607007251626415,4042381.1912285793,283.5159951395457,3200.5261129041996,39.673036255445986,2.1708429757784318,0.004745672916994121
3.7490000000000028,5721.233432922794,5.890916360150917,4038381.1096969536,283.4747025755931,3200.6270925623458,39.55886637426904,2.17256262683104,0.004790611186859979
3.789000000000003,5705.7581633152995,5.92102071589367,4034375.3658239385,283.4333210253678,3200.7269098439965,39.44476779601405,2.1742789651505774,0.004835446210387458
3.829000000000003,5690.453885186866,5.951239927821542,4030363.9518411886,283.39185022859414,3200.8271587451236,39.33074089452601,2.1759919666037195,0.0048801784327611
