time,thrust,OF,ox_tank.pressure,ox_tank.temperature,combustion_chamber.temperature,propellant_mass,propellant_CG,combustion_chamber.fuel_grain.geometry.length_regressed
0.007,249.20199647017895,4.563331842858952,4772167.193254856,290.5852730935339,2741.1709422753406,52.048490636265754,1.9516829794266841,1.4490988626748417e-05
0.014,1160.6559434386133,4.295230330937044,4770886.832413505,290.57360914403006,2826.7630009947675,52.00994849684022,1.9524243720268666,2.890200249912036e-05
0.021,2408.0415708445416,4.248566364784146,4769688.835442937,290.56269336595045,2848.824404180362,51.973822381176674,1.9531155548193033,4.255150219094166e-05
0.028,3411.615630925721,4.21836495383509,4768566.949718814,290.5524692005897,2857.6770249674655,51.93993128838886,1.9537605022890434,5.5489346771304986e-05
0.035,4190.753426279265,4.198840706645956,4767511.543970639,290.5428492233374,2862.3185759505905,51.90799533334902,1.954365176704404,6.779807111275158e-05
0.042,4777.723379219585,4.188358161404831,4766512.489700309,290.5337413961939,2865.7608840906382,51.8777194601971,1.9549357868497896,7.95671635916481e-05
0.049,5246.218317703417,4.184907712977391,4765559.96674387,290.52505641843777,2869.0127575712345,51.848816964026476,1.9554783088850927,9.088549545397199e-05
0.056,5591.102031781219,4.186449887848153,4764644.996732082,290.51671260126136,2872.3225799183188,51.82102521110353,1.9559981755288804,0.00010183591405114795
0.063,5840.452806943287,4.191128553925308,4763759.7346585505,290.5086385385331,2875.6322090480267,51.794114348823996,1.9565001118860745,0.0001124919549355789
0.07,6036.979655744061,4.197466328154597,4762897.581358279,290.50077414427665,2878.8218544704573,51.76789077463317,1.9569880779156832,0.0001229162528379863
0.07700000000000001,6179.100095355638,4.204549398923563,4762053.160940908,290.49307045736526,2881.8097094914406,51.742196615181356,1.9574652898750298,0.00013316033045691677
0.08400000000000002,6284.344734434772,4.211715188576677,4761222.186249479,290.48548842314614,2884.5332027336285,51.71690587768912,1.9579343063691066,0.00014326558350013366
0.09100000000000003,6361.7422854701845,4.218647634601396,4760401.3143507,290.4779975823152,2886.9898328190375,51.69192026877448,1.9583971185385998,0.0001532644709867312
0.09800000000000003,6419.67782936287,4.225226261245429,4759587.9780800305,290.47057453968233,2889.1941271000296,51.66716428111762,1.9588552529742342,0.0001631820217902062
0.10500000000000004,6462.1999859028065,4.23142626522253,4758780.227317441,290.46320152024055,2891.1869122955186,51.64258054672223,1.9593098677612675,0.00017303730510029175
0.11200000000000004,6493.164181800264,4.2372803600842825,4757976.593911538,290.45586513982107,2893.0058215831414,51.61812587374871,1.9597618337600164,0.00018284470729290178
0.11900000000000005,6515.588151365615,4.242840235499162,4757175.9794459725,290.4485553832552,2894.6853369064747,51.593767948893216,1.9602118018576116,0.0001926150074963776
0.12600000000000006,6531.541084574247,4.24816110189302,4756377.566095862,290.4412647925428,2896.254672139172,51.56948271582944,1.9606602562300184,0.00020235623955245076
0.13300000000000006,6542.684034598735,4.253293899567231,4755580.747157882,290.4339878340452,2897.7391789839944,51.54525233110208,1.9611075557578046,0.0002120743678495775
0.14000000000000007,6550.492531049786,4.258281567903219,4754785.073711916,290.4267204125236,2899.1606233113357,51.52106359420835,1.9615539657700094,0.00022177380836015904
0.14700000000000008,6555.850382790458,4.263158592679261,4753990.214245673,290.4194595032186,2900.5345277775336,51.49690675906049,1.9619996820407013,0.000231457824128504
0.15400000000000008,6559.407885746359,4.267952449658287,4753195.924363225,290.41220287577534,2901.8729159837576,51.4727746422738,1.9624448487724813,0.00024112882251042943
0.1610000000000001,6561.643223667849,4.272684308327949,4752402.0240835715,290.40494888731104,2903.184911615423,51.44866195495009,1.9628895720608301,0.0002507885781651298
0.1680000000000001,6562.907851989893,4.277370264005291,4751608.3809669465,290.39769632858224,2904.4773793266036,51.42456480607318,1.9633339298937962,0.0002604383988933573
0.1750000000000001,6563.459994152563,4.282022437966015,4750814.897613299,290.3904443099964,2905.755452005398,51.400480334650595,1.9637779795552723,0.000270079248527815
0.1820000000000001,6563.48932664166,4.286649897145911,4750021.502422443,290.3831921773512,2907.022950466438,51.37640643789169,1.9642217630931442,0.00027971183775389905
0.22200000000000011,6563.135150669487,4.291259391063272,4749228.142776934,290.3759394496597,2908.2827096344317,51.352341570708774,1.964665311351198,0.00028933669109850786
0.2620000000000001,6553.190640101811,4.299807106652706,4744686.817361813,290.3344058875886,2910.5498192078207,51.21489699791698,1.9671973481010554,0.000344240227256399
0.3020000000000001,6543.522301702285,4.32570775079821,4740140.438234671,290.29279585856654,2917.5686190360007,51.07756628966721,1.9697253031023745,0.0003989525461814778
0.3420000000000001,6537.742634111238,4.3506720451908905,4735589.493518311,290.2511136875264,2922.7476757787567,50.94036366985475,1.972248858106932,0.0004534706099732256
0.38200000000000006,6529.617519242222,4.378204447640241,4731035.401038232,290.2093722364128,2928.2394471143325,50.80333020392038,1.9747671611554536,0.0005077825824902356
0.42200000000000004,6523.052997500983,4.403766598899723,4726476.6497409735,290.16755753003434,2933.342902243944,50.66642197377412,1.9772810575661919,0.0005619046098599852
0.462,6515.986094117382,4.430628985122165,4721914.124758768,290.12567755511736,2938.6974417608494,50.52966455860527,1.9797900063348923,0.0006158299325391062
0.502,6509.949188408004,4.456688931407996,4717347.231078776,290.08372672035205,2943.8936229972483,50.39304071795848,1.982294320618323,0.0006695658205471576
0.542,6503.938799624233,4.4833540740747395,4712776.363195786,290.04170851740963,2949.2061918022673,50.25656180521432,1.9847937447027668,0.0007231101586006383
0.5820000000000001,6498.594244304351,4.509688179343993,4708201.260084174,289.9996204155596,2954.4525333007364,50.12022028559712,1.9872883992044406,0.0007764669747132297
0.6220000000000001,6493.51250387766,4.536315357478913,4703622.094661793,289.95746387295054,2959.7543265600675,49.984021123935406,1.989778156859525,0.0008296362028708641
0.6620000000000001,6488.953372345671,4.562821148100007,4699038.752000084,289.91523769905723,2965.030822589157,49.84796102772481,1.9922630548750009,0.000882620436291962
0.7020000000000002,6484.759889511109,4.589481852568662,4694451.307163599,289.87294245209006,2970.3358346338073,49.712042162956166,1.9947430227150702,0.0009354204773134339
0.7420000000000002,6481.039676184495,4.6161146318834065,4689859.709082605,289.83057752760595,2975.6337821864413,49.57626309650408,1.9972180616562833,0.000988038269404747
0.7820000000000003,6477.996262422449,4.6428416309776805,4685263.98957923,289.7881430849457,2980.174511986505,49.44062477373224,1.9996881263949058,0.0010404749678637592
0.8220000000000003,6474.890619658236,4.66982891788375,4680664.125254066,289.7456387733839,2983.8704370409596,49.30512657583054,2.0021532030326967,0.0010927322098671873
0.8620000000000003,6471.288312406651,4.696829225155451,4676059.885239923,289.70306232184754,2987.5640105455573,49.16976202050073,2.004613393577684,0.0011448134792500552
0.9020000000000004,6467.45859552193,4.723682454522745,4671451.118850459,289.6604121946713,2991.2364753812744,49.03452695132822,2.007068754166812,0.0011967214795742238
0.9420000000000004,6463.260701142852,4.750694132214402,4666837.89730414,289.6176889073377,2994.9285327278744,48.8994235169221,2.009519217102429,0.001248456881693511
0.9820000000000004,6458.775604097349,4.777687666063109,4662220.170568578,289.57489185260016,2998.616775254762,48.7644504436692,2.0119647824811424,0.001300021427183554
1.0220000000000005,6453.940449116824,4.804774091282205,4657597.964080509,289.5320211215233,3002.315924657818,48.629608599774784,2.014405408707859,0.0013514161588356903
1.0620000000000005,6448.786075735676,4.8318853715797365,4652971.256331193,289.4890763694361,3006.0169714793556,48.494897538995644,2.0168410804150687,0.0014026425178117249
1.1020000000000005,6443.284821463396,4.859064318415021,4648340.054311142,289.446057515354,3009.7255870729878,48.36031762657971,2.0192717667184055,0.0014537016710049005
1.1420000000000006,6437.447999912359,4.886285180802834,4643704.347042772,289.40296431085284,3013.4383670865295,48.22586873211688,2.0216974468391764,0.0015045949241933414
1.1820000000000006,6431.263651095389,4.913564556258753,4639064.134171415,289.3597966055162,3017.157509431715,48.091551032128656,2.0241180943759893,0.0015553234695232102
1.2220000000000006,6423.17309973623,4.940892913839565,4634419.408404058,289.31655418374834,3020.459957112047,47.95736451783654,2.02653368692568,0.001605888540552054
1.2620000000000007,6410.621341604476,4.968820787438877,4629770.166291472,289.2732368650221,3022.885581041808,47.82330929663846,2.028944200184085,0.0016562913180398098
1.3020000000000007,6397.102989443521,4.997026357491905,4625115.89092927,289.2298396788,3025.323277601757,47.689371232899056,2.031349887144863,0.0017065373902858466
1.3420000000000007,6384.301419083309,5.024424911510903,4620455.961278621,289.1863566672039,3027.692419599433,47.55553342189582,2.03375105357439,0.0017566331469624013
1.3820000000000008,6371.320433820113,5.052288335485278,4615790.687212372,289.1427905505466,3030.099643047039,47.42180483679793,2.036147502022209,0.0018065769142462647
1.4220000000000008,6358.582861541974,5.080013230072536,4611119.939765058,289.0991399545659,3032.494427312147,47.288182281527234,2.038539271937275,0.0018563707829204038
1.4620000000000009,6345.885365103665,5.1078892166280685,4606443.798306525,289.05540544987934,3034.9010077684015,47.154668332686335,2.040926291072218,0.0019060150439586772
1.502000000000001,6333.323926233791,5.135777098086885,4601762.241877412,289.0115866692766,3037.307756765496,47.02126279853582,2.043308541211867,0.0019555108315462088
1.542000000000001,6320.8505541584955,5.163744921737878,4597075.297372513,288.9676836926928,3039.720362309884,46.88796681147817,2.0456859788532245,0.0020048588598642883
1.582000000000001,6308.486980238363,5.191759931492047,4592382.967955281,288.9236963776087,3042.136097778499,46.75478085475141,2.04805857339401,0.002054060031074826
1.622000000000001,6296.220986248192,5.219838711874224,4587685.267872687,288.8796246849353,3044.5563512193376,46.62170572023657,2.0504262886109372,0.002103115141163959
1.662000000000001,6288.64264457649,5.247973542679635,4582982.205428146,288.8354685194881,3046.482322190663,46.48874204086179,2.052789091681136,0.002152025023495982
1.702000000000001,6285.756292611746,5.2764299131060195,4578273.791372827,288.7912278086456,3047.889871589662,46.35589052055141,2.055146948742483,0.002200790478644037
1.742000000000001,6282.741402821345,5.304920257551782,4573559.800876656,288.74690026328403,3049.2952566045874,46.22314546389612,2.057499948943778,0.002249414235377633
1.7820000000000011,6279.8981528298145,5.333274737897625,4568840.079587508,288.70248425049675,3050.693576446363,46.090503140247506,2.0598481434817693,0.0022978984008735115
1.8220000000000012,6277.136193063733,5.361792355917854,4564114.681425929,288.6579800944045,3052.098817011969,45.95796549597789,2.062191474860707,0.0023462433476560667
1.8620000000000012,6274.4968394131765,5.390334983691641,4559383.5617796555,288.61338719089275,3053.504488513019,45.82553180915005,2.064529936962754,0.0023944502448207585
1.9020000000000012,6271.964744137026,5.418965277729736,4554646.719743791,288.5687053462281,3054.9111544721086,45.693202551473874,2.066863501057897,0.00244251988936119
1.9420000000000013,6269.5481815797475,5.447656857934405,4549904.134568629,288.52393417848225,3056.3195512241136,45.560977666062456,2.0691921487480465,0.0024904532265104867
1.9820000000000013,6267.246916467802,5.4764207334274655,4545155.793144095,288.47907337655585,3057.730574911392,45.428857310916534,2.071515857755059,0.0025382511258251507
2.022000000000001,6265.064113834426,5.505253202034927,4540401.679226951,288.4341225985566,3059.1440512185945,45.29684156797396,2.073834607468487,0.002585914468910231
2.062000000000001,6263.00133914027,5.534156695640875,4535641.777659221,288.38908151160797,3060.5600913823573,45.16493055672321,2.0761483767760676,0.00263344411551532
2.102000000000001,6255.382235871952,5.563130849687273,4530876.07241315,288.3439497733607,3061.2741132910805,45.033124381612126,2.07845714505951,0.0026808409194644927
2.1420000000000012,6246.725007373441,5.592623180659959,4526104.547448036,288.298727040076,3061.935044477084,44.90142315502494,2.080760891753124,0.002728105721966631
2.1820000000000013,6238.28159680349,5.621675115063705,4521326.803822312,288.25340933341477,3062.586216298796,44.76981681067852,2.083059788666298,0.0027752423677527218
2.2220000000000013,6229.784790975697,5.650986336876707,4516542.9576934,288.20799755380114,3063.242475884389,44.63830904751576,2.0853537471766534,0.0028222505997527944
2.2620000000000013,6221.332785380736,5.680304206798697,4511752.941010785,288.1624908536005,3063.8984933096726,44.506898663385144,2.087642771500611,0.0028691316052545223
2.3020000000000014,6212.889002948987,5.7097230617176695,4506956.75333181,288.1168890253285,3064.556254196874,44.3755862630385,2.089926831922698,0.0029158860272699622
2.3420000000000014,6204.466426395185,5.7392086966900795,4502154.36885468,288.0711916192259,3065.2150340501526,44.244371786495805,2.092205911432336,0.002962514695980857
2.3820000000000014,6196.059932302384,5.768774396824343,4497345.770693964,288.0253982688263,3065.875110386182,44.11325541851586,2.094479988582276,0.0030090183603463903
2.4220000000000015,6187.670975638106,5.798416009607981,4492530.938316782,287.97950857149533,3066.536392414094,43.9822372558846,2.096749043744763,0.0030553977862947494
2.4620000000000015,6179.298644584784,5.828135745062522,4487709.852117925,287.93352213193907,3067.1989238150495,43.85131742834097,2.099013056835527,0.0031016537213048425
2.5020000000000016,6165.263433535464,5.857933509431155,4482882.491764827,287.8874385464244,3067.496626151825,43.72049605492884,2.1012720081287246,0.0031477869073592117
2.5420000000000016,6148.0911261040865,5.888018361272532,4478048.836791917,287.8412574084218,3067.5989636708546,43.58977325965215,2.103525877959817,0.0031937980764972914
2.5820000000000016,6131.112652889137,5.918042512376812,4473208.694702202,287.79497666425334,3067.6982363685574,43.459144688266576,2.1057747301092484,0.0032396892521160277
2.6220000000000017,6114.350827424968,5.94811121922523,4468362.022677885,287.74859568628045,3067.7976700491326,43.3286099268171,2.1080185548138504,0.003285461297880073
2.6620000000000017,6097.761009293537,5.978280542945952,4463508.811734428,287.70211416875003,3067.897302424364,43.19816945316913,2.11025732585096,0.003331114810424224
2.7020000000000017,6081.355487053589,6.008525663356399,4458649.034491894,287.65553162827416,3067.9970685273493,43.06782327415316,2.112491025893907,0.003376650515241178
2.7420000000000018,6065.126276319756,6.038855536342111,4453782.669444822,287.60884763601865,3068.096991704772,42.9375715582069,2.1147196347466597,0.0034220690832818365
2.782000000000002,6049.071710209177,6.069268149706858,4448909.69289458,287.5620617404329,3068.1970627660694,42.8074144254898,2.1169431332370943,0.0034673711918559815
2.822000000000002,6033.188364339458,6.099764787317921,4444030.081388708,287.5151734906015,3068.2972827804933,42.67735201125511,2.119161502038868,0.003512557506432854
2.862000000000002,6017.473389387588,6.130345779552806,4439143.811010898,287.4681824294113,3068.3976497626095,42.54738444747749,2.1213747220081953,0.003557628686057772
2.902000000000002,6006.247422885607,6.161011729428915,4434250.857581466,287.42108809545164,3068.223517138715,42.41751186806814,2.123582774084251,0.0036025853819641215
2.942000000000002,5997.002076112101,6.191906260999004,4429351.196600125,287.3738900224406,3067.9112958865544,42.28773440743015,2.1257856393126677,0.003647428238100134
2.982000000000002,5987.748878289089,6.2227887842908185,4424444.689569356,287.3265866427928,3067.598641793507,42.1580492955588,2.127983352015543,0.003692158718512028
3.022000000000002,5978.520957731418,6.25373509162282,4419531.298474708,287.2791773533971,3067.285602391128,42.02845635765205,2.1301758988474786,0.0037367775364581385
3.062000000000002,5969.300483163957,6.284782474730726,4414611.006181076,287.23166175057685,3066.9717018611072,41.89895596176332,2.132363256625227,0.0037812852437516067
3.102000000000002,5960.092521097399,6.315914559428122,4409683.783232319,287.18403930989894,3066.657107605194,41.76954817009309,2.1345454078647985,0.003825682472659153
3.142000000000002,5950.895515446233,6.347136869834219,4404749.6035511,287.1363095375945,3066.341764029719,41.640233140082785,2.1367223334389918,0.003869969821806544
3.182000000000002,5941.709395913986,6.378448774982174,4399808.439815304,287.0884719259011,3066.023668263593,41.511011006550774,2.1388940147284403,0.003914147889783295
3.222000000000002,5932.533025180316,6.409851850292541,4394860.264573671,287.040525963813,3065.7034427464414,41.38188191013808,2.141060433099777,0.003958217267165546
3.2620000000000022,5923.36708771422,6.441345261674792,4389905.049423238,286.99247112908176,3065.382455847405,41.25284597658876,2.1432215702784907,0.0040021785424496446
3.3020000000000023,5923.620363547565,6.472929870919362,4384942.766221094,286.94430689992936,3064.7694491976945,41.1239033474193,2.1453774077899608,0.004046032293496669
3.3420000000000023,5924.41244760975,6.504731631337099,4379973.386740831,286.8960327517059,3064.1406845516944,40.995054171197715,2.1475279271163634,0.004089779090104886
3.3820000000000023,5925.526572582903,6.5364862294415635,4374996.786429889,286.8476472207428,3063.513295098193,40.866296195008594,2.149673153036436,0.004133420167795021
3.4220000000000024,5926.980033260153,6.568376258143666,4370012.966783069,286.79915006515273,3062.8836680690274,40.737630343188314,2.1518130530307324,0.004176955864299359
3.4620000000000024,5928.780587402823,6.600351940974805,4365021.891055703,286.75054066933507,3062.252730998163,40.6090565899425,2.1539476117902336,0.004220386777934295
3.5020000000000024,5930.943868194492,6.632423869294253,4360023.530167027,286.7018184900079,3061.620293478907,40.4805751109067,2.1560768104510144,0.004263713444925799
3.5420000000000025,5933.484081097065,6.664591301136076,4355017.85351043,286.65298296681885,3060.986364195589,40.352186053056165,2.1582006307348145,0.004306936403893913
3.5820000000000025,5936.416647939496,6.696854855811952,4350004.830193608,286.60403353438005,3060.3509305380967,40.22388956578894,2.160319054387602,0.004350056187242801
3.6220000000000026,5939.757762901494,6.729215178352166,4344984.429003533,286.5549696218973,3059.7139785534346,40.095685800109194,2.162432063192039,0.004393073321470028
3.6620000000000026,5933.76128086933,6.761672847183322,4339956.618360353,286.5057906526895,3058.9566140855536,39.96757490754995,2.1645396389844658,0.004435988327544047
3.7020000000000026,5919.228379299362,6.794265363687597,4334921.366331777,286.45649604429684,3058.090667110576,39.83955704059885,2.1666417636450537,0.004478801720862535
3.7420000000000027,5904.740219115052,6.8269475218103794,4329878.61316278,286.4070849391661,3057.22253256445,39.71163167846767,2.168738431031969,0.004521514197021286
3.7820000000000027,5890.329498287235,6.859704496061479,4324828.310922832,286.35755659243017,3056.353001188737,39.58379860558253,2.17082962957747,0.004564126361279608
3.8220000000000027,5875.9797193578415,6.892570473181708,4319770.432548709,286.30791046119157,3055.478191941829,39.4560581294169,2.172915338493247,0.00460663866956216
3.8620000000000028,5861.692595358045,6.925536332523492,4314704.9427977195,286.2581459199142,3054.6006946167736,39.328410366555374,2.1749955404228176,0.004649051625388033
