time,thrust,OF,ox_tank.pressure,ox_tank.temperature,combustion_chamber.temperature,propellant_mass,propellant_CG,combustion_chamber.fuel_grain.geometry.length_regressed
0.007,243.08224545996777,6.390367706704278,5001122.001399256,292.6337272365141,2805.703621257994,53.4755211109526,1.8586195313280172,1.1420945610274581e-05
0.014,1006.3823373361099,6.081652109490865,4999862.803000609,292.6226591347032,2959.8174890581186,53.439360349262955,1.8594328872897004,2.2787944119994265e-05
0.021,2186.117080602825,6.023839168463345,4998670.443344512,292.6121765624582,3011.3360947675706,53.405085020235184,1.8602012527192282,3.365997260519378e-05
0.028,3151.1634680477355,5.985075136117303,4997541.188899919,292.6022470094808,3039.6026169649367,53.37259061217864,1.860927254792735,4.406039565942514e-05
0.035,3928.3239054644805,5.95749302019057,4996468.184214938,292.59281046820405,3057.535965797995,53.34168505081419,1.8616155637457943,5.403619425614603e-05
0.042,4523.930696053344,5.939390560412614,4995444.0169296395,292.5838019787501,3069.7332377725156,53.31216044091718,1.8622711867850321,6.363960704466847e-05
0.049,5013.375510568117,5.929139201208245,4994461.33912611,292.57515709666666,3078.370065126296,53.283810476256974,1.8628990586060827,7.292353387026009e-05
0.056,5396.124683131253,5.924983424028614,4993513.235330313,292.5668151359339,3084.6479557071116,53.25644080001769,1.8635038023191177,8.193863789907841e-05
0.063,5693.232009122383,5.925238801596053,4992593.456016744,292.55872123031173,3089.2811284569843,53.22987561833112,1.8640895804576514,9.073136671859968e-05
0.07,5922.431588186141,5.928444211525614,4991696.538904921,292.55082740786486,3092.7335872639355,53.20396116952256,1.864660020215033,9.934279691719301e-05
0.07700000000000001,6098.313582122062,5.933459683886268,4990817.842126215,292.5430928897082,3095.3373731362813,53.17856671010148,1.865218196294434,0.00010780816777991389
0.08400000000000002,6232.664800645782,5.939468126441098,4989953.511463475,292.5354838078492,3097.3068599512712,53.15358363392293,1.8657666563562365,0.00011615695994321092
0.09100000000000003,6335.746307214791,5.945932215862718,4989100.406891886,292.52797256389806,3098.8057797068413,53.1289234323694,1.8663074723465531,0.0001244133328648258
0.09800000000000003,6416.216126368796,5.952523675319111,4988256.008818653,292.52053700810364,3099.9435193842955,53.104515071285604,1.8668423043511393,0.00013259676029034572
0.10500000000000004,6476.900508826269,5.959062572666464,4987418.320038471,292.51315957975066,3100.818101003328,53.08030223859671,1.8673724665905844,0.00014072273145180337
0.11200000000000004,6521.045642967748,5.965462991258857,4986585.772468453,292.50582648881846,3101.4810842453217,53.05624072086795,1.8678989897595382,0.0001488034386161008
0.11900000000000005,6554.040070631587,5.971696595547204,4985757.144131309,292.4985269871847,3101.993087892865,53.03229606523023,1.8684226762619223,0.00015684840075104312
0.12600000000000006,6578.523263542563,5.977763577510109,4984931.488113264,292.4912527447095,3102.389297418116,53.00844157697287,1.8689441473220232,0.00016486500404772755
0.13300000000000006,6596.51718076964,5.983680332294016,4984108.074043098,292.483997335139,3102.6968732047526,52.98465666920542,1.8694638817002736,0.00017285895103885267
0.14000000000000007,6609.567743920671,5.989468800083887,4983286.340483031,292.4767558177582,3102.936705996403,52.96092551984709,1.8699822471284326,0.0001808346282298228
0.14700000000000008,6618.855234782133,5.9951514620660555,4982465.856970336,292.4695244037759,3103.123879264383,52.937236000688436,1.8704995253341814,0.00018879540047096377
0.15400000000000008,6625.279519261691,6.000748973064016,4981646.294109864,292.46230019341886,3103.2703901728164,52.91357883355168,1.871015931733111,0.0001967438435940211
0.1610000000000001,6629.525964965022,6.0062790967941515,4980827.400208521,292.4550809704984,3103.387464010747,52.889946931052215,1.871531630796667,0.0002046819265386184
0.1680000000000001,6632.1168330166065,6.011756443840387,4980008.983153728,292.44786504305733,3103.4821112700274,52.86633488535542,1.8720467479599423,0.00021261115280020036
0.1750000000000001,6633.449583553944,6.0171929548285155,4979190.896442461,292.4406511204978,3103.559680077002,52.84273857408049,1.8725613787945647,0.00022053266957640185
0.1820000000000001,6633.826613608711,6.022598134938406,4978373.028418778,292.4334382189126,3103.624246801248,52.819154856757436,1.8730755960696088,0.0002284473518888757
0.1890000000000001,6633.477940217942,6.027979459466353,4977555.294019892,292.4262255884724,3103.678916820733,52.79558134208108,1.8735894551629182,0.00023635586711019072
0.19600000000000012,6632.578496166432,6.03334275649091,4976737.628459738,292.41901265785003,3103.72605488534,52.77201620983315,1.8741029981995314,0.0002442587243440406
0.23600000000000013,6631.261306644715,6.038692541153968,4975919.982402786,292.4117989917514,3103.7674612424603,52.74845807485048,1.874616257211723,0.0002521563121479912
0.27600000000000013,6619.72424759456,6.048649751014049,4971240.254821256,292.37049471558925,3103.7238822108075,52.613889635939806,1.877545814047487,0.00029721784492321257
0.3160000000000001,6605.9901779307265,6.078170624499726,4966555.928168468,292.32912002368266,3103.864446976908,52.47940397955658,1.8804694554827721,0.0003421482418175826
0.3560000000000001,6590.547236381499,6.109443103398488,4961867.652054662,292.28768052778895,3103.997861419872,52.34501968614933,1.883386742425867,0.00038694338590276634
0.3960000000000001,6575.913119803561,6.139628559768112,4957174.623882426,292.24616900588506,3104.1263387021545,52.21071484157329,1.8862981679181872,0.00043161026355929664
0.43600000000000005,6565.412490623911,6.170178150861556,4952477.065785616,292.2045872888994,3103.847435904454,52.07649612734371,1.889203566882016,0.0004761479944582918
0.47600000000000003,6554.793335289564,6.200886964016824,4947774.90679302,292.1629346156605,3103.5534609947713,51.94236206406486,1.8921029620832264,0.0005205579233566822
0.516,6544.288455490415,6.231449662149154,4943067.99891937,292.12120953974124,3103.261229479911,51.80830905614703,1.8949964246154676,0.0005648419536537778
0.556,6533.797482332795,6.262110190344226,4938356.365204344,292.07941212813705,3102.968186815967,51.67433826356198,1.8978839167658659,0.0006090006800259574
0.5960000000000001,6523.339422303166,6.292806499807175,4933639.98086648,292.03754202325104,3102.674895010624,51.54044952593896,1.9007654312270112,0.000653035045268819
0.6360000000000001,6512.911284155933,6.323550162482477,4928918.82997851,291.99559894503307,3102.3812574108865,51.40664293428948,1.9036409551175095,0.0006969459126615796
0.6760000000000002,6502.512817767319,6.35434025274821,4924192.895254699,291.95358260043196,3102.0872756462986,51.27291854809917,1.906510476444749,0.0007407341430412194
0.7160000000000002,6492.14369229548,6.385177182961564,4919462.15927488,291.91149269424045,3101.7929436983486,51.13927642917372,1.9093739833270338,0.0007844005858149932
0.7560000000000002,6481.803514619155,6.416061384310517,4914726.604460337,291.8693289288706,3101.4982545583666,51.00571664094412,1.9122314640048232,0.0008279460793423573
0.7960000000000003,6473.184018502079,6.446993233386493,4909986.213039563,291.82709100403787,3101.158223631673,50.872239247502606,1.9150829068580426,0.0008713714513819919
0.8360000000000003,6474.503899975743,6.477990620840406,4905240.967060446,291.7847786168583,3100.557346885926,50.73884431391807,1.9179283003944052,0.0009146775191900303
0.8760000000000003,6476.030808217231,6.50911875987343,4900490.835530375,291.74239134704044,3099.9527188753837,50.605531555276734,1.9207676411524324,0.0009578651830773312
0.9160000000000004,6477.883206495177,6.540190151302932,4895735.729648005,291.6999282565197,3099.34960753893,50.47229911971445,1.9236009610108455,0.0010009357486633148
0.9560000000000004,6480.072923011286,6.571339458724392,4890975.651929318,291.6573892207113,3098.745312557951,50.33914765757508,1.9264282355131883,0.0010438898445694655
0.9960000000000004,6482.606750116059,6.602534721268525,4886210.579952231,291.6147738914399,3098.1395531553394,50.206077144088376,1.9292494555563182,0.0010867282697206604
1.0360000000000005,6485.49783205697,6.633781065226709,4881440.494815997,291.5720819509099,3097.5310434451785,50.07308765644016,1.9320646098688978,0.001129451786590078
1.0760000000000005,6488.758005835069,6.665078904353081,4876665.376968635,291.5293130744309,3096.921817293194,49.94017925999938,1.9348736875685777,0.0011720611515944439
1.1160000000000005,6492.401737424456,6.696426753385997,4871885.206281816,291.48646693106116,3096.3119207585128,49.8073520104373,1.9376766781085981,0.0012145571146575224
1.1560000000000006,6496.443050993666,6.727826530264578,4867099.963471861,291.443543196333,3095.7013130955725,49.67460599215246,1.9404735704160143,0.0012569404092613026
1.1960000000000006,6491.993031825664,6.759278247029333,4862309.628793131,291.4005415405416,3094.9844159911304,49.54194128284262,1.9432643536811094,0.00129921176193954
1.2360000000000007,6477.6839106327925,6.790812152683679,4857514.182355985,291.3574616315805,3094.1470402451455,49.409357962116324,1.9460490171611986,0.001341371890154684
1.2760000000000007,6463.417689960468,6.822400466556702,4852713.582958316,291.3143029445483,3093.308205017522,49.27685554308694,1.948827562779528,0.0013834216505156786
1.3160000000000007,6449.242764417652,6.854013791689695,4847907.792360014,291.27106497949933,3092.469193100136,49.144433627759085,1.9515999905118278,0.0014253618670149921
1.3560000000000008,6435.140292516884,6.8856887450179025,4843096.795688071,291.2277474453286,3091.6290070246105,49.01209245244262,1.9543662863458695,0.0014671931899187763
1.3960000000000008,6421.112304916192,6.917416910317258,4838280.571233988,291.18434998831054,3090.7878529658437,48.87983207559085,1.9571264403111246,0.001508916307874235
1.4360000000000008,6407.157927221312,6.9491995601630485,4833459.097946824,291.1408722594538,3089.9457001382707,48.74765257914647,1.9598804420083162,0.0015505318955389875
1.4760000000000009,6393.276221387752,6.98103719678416,4828632.3546386175,291.09731390734316,3089.1025323569684,48.61555404720282,1.962628281079603,0.0015920406192716841
1.516000000000001,6379.466400637119,7.0129301227518805,4823800.319886293,291.05367457724196,3088.258339532748,48.48353656339309,1.9653699472630417,0.001633443137932679
1.556000000000001,6365.727653220227,7.044878726682293,4818962.97209136,291.0099539116164,3087.413109388898,48.351600212495875,1.9681054303541408,0.0016747401025910668
1.596000000000001,6356.179357619745,7.076883381528058,4814120.289467458,290.9661515500097,3086.4090736915523,48.21974508011333,1.9708347202099912,0.0017159321567282713
1.636000000000001,6346.825462474859,7.108970557368162,4809272.250040638,290.922267129031,3085.3943315755296,48.08797125269052,1.9735578067459396,0.0017570199363508947
1.676000000000001,6337.489439437782,7.141088261291925,4804418.813793059,290.8783001205198,3084.3762516145093,47.95627834598871,1.976274690213386,0.0017980041905068305
1.716000000000001,6328.162293043088,7.173269135938494,4799559.962075743,290.83425018835925,3083.3567333681453,47.82466654811836,1.9789853584069912,0.0018388855144090247
1.7560000000000011,6318.84582011606,7.205506323727988,4794695.671299277,290.7901169504192,3082.335991572935,47.69313592233462,1.9816898019171905,0.0018796645283152733
1.7960000000000012,6309.539644325172,7.237801624418828,4789825.918795378,290.7459000316187,3081.3139714849517,47.56168656211913,1.9843880107402494,0.001920341837954232
1.8360000000000012,6300.243475915018,7.2701553592656145,4784950.681626786,290.7015990531322,3080.2906603069937,47.43031855973551,1.9870799749620063,0.001960918042671855
1.8760000000000012,6290.957102373669,7.302567847624656,4780069.936635555,290.6572136328113,3079.266046413039,47.29903200753023,1.9897656847267906,0.002001393735201576
1.9160000000000013,6281.680291220698,7.335039474514832,4775183.660482383,290.61274338552704,3078.240116095729,47.16782699898773,1.9924451302119885,0.002041769501498314
1.9560000000000013,6272.348822678836,7.367570607665819,4770291.829633413,290.56818792303534,3077.1402527201094,47.03670362840612,1.9951183016326122,0.002082045920921098
1.9960000000000013,6262.979559643798,7.400163072544546,4765394.420360813,290.52354685396705,3075.987677286779,46.90566199093505,1.9977851892380534,0.002122223566321723
2.0360000000000014,6253.618390333814,7.432815268885932,4760491.407774735,290.4788197749785,3074.8336181774157,46.77470215742661,2.0004457838495053,0.0021623030104535737
2.0760000000000014,6244.266186033781,7.465527317332578,4755582.767325782,290.4340062844238,3073.6780844230534,46.6438242136815,2.0031000760119526,0.0022022848161745833
2.1160000000000014,6234.922417314388,7.498300564613325,4750668.474861427,290.3891059828739,3072.5210267593898,46.513028261816366,2.005748055965305,0.002242169536231587
2.1560000000000015,6225.586896284708,7.531135147280761,4745748.505860698,290.3441184661217,3071.362438633883,46.382314400359675,2.008389714070029,0.002281957718355701
2.1960000000000015,6216.259418161988,7.564031444248325,4740822.835619067,290.2990433268524,3070.202305695783,46.25168272909331,2.0110250407009174,0.0023216499041348107
2.2360000000000015,6206.93976971533,7.596989830023721,4735891.4392366735,290.2538801545206,3069.0406136286597,46.12113334877508,2.0136540262509,0.002361246629170981
2.2760000000000016,6197.627743471959,7.630010668681265,4730954.291611366,290.2086285352698,3067.8773485406077,45.9906663609889,2.016276661132113,0.0024007484232037354
2.3160000000000016,6188.294080635279,7.663094326692827,4726011.3674395075,290.163288051924,3066.675685934454,45.86028186819722,2.018892935772699,0.0024401558101811846
2.3560000000000016,6178.926252682409,7.696236116225218,4721062.641214615,290.11785828395847,3065.4137355840235,45.72997997373896,2.0215028406147937,0.0024794693083432123
2.3960000000000017,6169.573256347512,7.729438834768707,4716108.090487223,290.07233883744453,3064.15027597651,45.599760865303125,2.024106364349672,0.0025186894096908383
2.4360000000000017,6160.223795617373,7.762713664388617,4711147.693626017,290.02672932455846,3062.884764359287,45.469624757015154,2.026703495152743,0.002557816594524987
2.4760000000000018,6150.8801868537685,7.796051144338481,4706181.4226527745,289.9810292976429,3061.6175564029854,45.33957170649386,2.029294224535937,0.002596851376591886
2.516000000000002,6141.5421652799205,7.82945344670554,4701209.25076894,289.93523831830737,3060.3485751839157,45.20960180790853,2.0318785432606834,0.002635794255395147
2.556000000000002,6132.2094344877805,7.862920984152595,4696231.150925569,289.88935594427556,3059.077803131856,45.079715155357725,2.0344564421106353,0.002674645725328865
2.596000000000002,6122.881828320753,7.8964540326254316,4691247.095802491,289.8433817291742,3057.8052292177463,44.94991184238933,2.0370279118996724,0.002713406275867365
2.636000000000002,6113.559154623775,7.9300529825218,4686257.057878262,289.79731522315853,3056.530838171654,44.82019196382542,2.039592943431678,0.0027520763911892303
2.676000000000002,6104.2228054298475,7.96371820434103,4681261.009413109,289.75115597273685,3055.2315652152565,44.69055561536977,2.0421515275070017,0.002790656550345585
2.716000000000002,6094.865630938318,7.99743968887229,4676258.922447493,289.7049035207389,3053.884607453366,44.56100289361475,2.0447036549205517,0.002829147227328795
2.756000000000002,6085.534618605543,8.031216857651192,4671250.77531629,289.65855746660435,3052.536424968635,44.43153406013593,2.0472493130524447,0.002867548851252126
2.796000000000002,6076.204107973544,8.06508031847721,4666236.551898674,289.6121174596591,3051.1855507375813,44.302149521179594,2.0497884863197413,0.002905861811688375
2.836000000000002,6066.879127721413,8.09900737431989,4661216.221529241,289.56558301303176,3049.8328738696864,44.172849322315784,2.052321166657413,0.0029440865814580218
2.876000000000002,6057.559557043433,8.133002079198068,4656189.756237567,289.51895366308685,3048.478247706289,44.04363358355502,2.0548473444612965,0.0029822236107070505
2.916000000000002,6048.244957550463,8.167065081683964,4651157.127869918,289.4722289427817,3047.12164358555,43.914502426768145,2.057367010096727,0.003020273344647749
2.956000000000002,6038.935207349198,8.201196503310706,4646118.307902144,289.42540837990924,3045.763056320311,43.78545597105554,2.059880153992391,0.0030582362247397452
2.996000000000002,6029.6301131323635,8.235396744779539,4641073.267616029,289.37849149871295,3044.400124467185,43.65649433722102,2.0623867665461897,0.0030961126876676444
3.0360000000000023,6020.3143956977165,8.269662951310723,4636021.978067502,289.3314778195724,3043.011860383082,43.527617647024364,2.064886838139184,0.0031339031655829197
3.0760000000000023,6011.000960560808,8.303981169043103,4630964.412056892,289.28436687734325,3041.593606338391,43.398826072118936,2.0673803581334775,0.0031716080744253233
3.1160000000000023,6001.712658839888,8.338365529844076,4625900.552473239,289.23715829923617,3040.1736992665715,43.27012004030197,2.0698673106717504,0.003209227764687227
3.1560000000000024,5992.421551570728,8.372842222105092,4620830.381767941,289.1898517069403,3038.7507578265286,43.14149997295068,2.0723476800747127,0.003246762584745955
3.1960000000000024,5983.133448047571,8.407385056489664,4615753.866239338,289.14244656978366,3037.3258465615463,43.012965897365675,2.074821458717752,0.003284212973430865
3.2360000000000024,5973.848250943579,8.441998804513549,4610670.975338191,289.09494238459706,3035.8987868444196,42.88451792596464,2.07728863722937,0.003321579345107864
3.2760000000000025,5964.565492606354,8.476684186601622,4605581.67832242,289.0473386445207,3034.4695462894206,42.75615617332101,2.0797492061862757,0.003358862109637963
3.3160000000000025,5955.285067972223,8.511441282959286,4600485.944031876,288.99963483687446,3033.0381216737665,42.62788075068435,2.0822031562229624,0.00339606167373556
3.3560000000000025,5946.006816163372,8.546270504361292,4595383.741094094,288.95183044505734,3031.604496641743,42.499691771117085,2.0846504779258934,0.0034331784397952907
3.3960000000000026,5936.707346697615,8.581172224089716,4590275.037889574,288.9039249482006,3030.141819249892,42.37158934869787,2.0870911618483765,0.003470212806134845
3.4360000000000026,5927.425965965991,8.616121372357666,4585159.802546086,288.85591782109134,3028.666978172543,42.243573598443014,2.08952519851082,0.00350716516706524
3.4760000000000026,5918.153135318431,8.651157188425962,4580038.0180973755,288.80780867659564,3027.189425056695,42.11564500539782,2.0919525710031115,0.0035440358258146945
3.5160000000000027,5908.880751946672,8.6862729870218,4574909.656269018,288.759597019695,3025.7093032995326,41.9878037841911,2.0943732678669607,0.00358082514621113
3.5560000000000027,5899.611220034841,8.721460297226361,4569774.683854539,288.7112823070431,3024.2269738249124,41.86005003632235,2.096787279900043,0.003617533515208125
3.5960000000000027,5890.344260630921,8.75672160572769,4564633.068877711,288.6628640048106,3022.7423385461893,41.73238390047233,2.0991945971377834,0.0036541613074043858
3.636000000000003,5881.079620749337,8.792057280080963,4559484.779038721,288.6143415740691,3021.2553811919006,41.60480551468385,2.1015952096112223,0.003690708894030163
3.676000000000003,5871.817162014051,8.827467574168114,4554329.781720897,288.5657144708277,3019.763696874089,41.47731501660405,2.103989107340688,0.0037271766429339374
3.716000000000003,5862.557252434254,8.862949035172527,4549168.044062489,288.5169821466839,3018.265827871962,41.34991254529171,2.106376280298564,0.0037635649182028805
3.756000000000003,5853.281692556487,8.898503071547369,4543999.535180729,288.4681440698242,3016.7417035517874,41.222598294685724,2.10875671735231,0.0037998740677219166
3.796000000000003,5844.0449126688545,8.934099465994711,4538824.225099105,288.4191997149399,3015.217015357962,41.09537248743112,2.111130406790396,0.003836104429417201
