time,thrust,OF,ox_tank.pressure,ox_tank.temperature,combustion_chamber.temperature,propellant_mass,propellant_CG,combustion_chamber.fuel_grain.geometry.length_regressed
0.007,240.77855767228868,4.489205446463954,4445079.304468725,287.52525875631716,2751.6536260079215,52.89987986799327,1.9677292493599565,1.3410010328746556e-05
0.014,1012.5713892616603,4.2243234057404235,4444025.053904992,287.51512516147653,2828.576692906824,52.864475698961634,1.9683833844540009,2.6747305747067312e-05
0.021,2160.6028334773086,4.1786938298300935,4443038.757507446,287.5056431134848,2849.8372611586124,52.831293010557715,1.9689931673119117,3.937950215678276e-05
0.028,3073.4179298320328,4.148542739087849,4442115.055235905,287.49676139637387,2858.290467247623,52.80015899809113,1.9695622314396084,5.135473687507377e-05
0.035,3796.2183783179007,4.128646452875264,4441246.033455033,287.4884041826385,2862.6171717374646,52.77081743156644,1.9700958212804842,6.2749102432923e-05
0.042,4337.875628993871,4.11739000370041,4440423.419750938,287.4804921329801,2865.7250369598064,52.74299975151955,1.9705993693919157,7.364461565626443e-05
0.049,4757.143525997957,4.1129597434400536,4439639.226946669,287.4729485960105,2868.6353252044228,52.71644604722782,1.9710780853899799,8.412239577966645e-05
0.056,5086.036993256455,4.113425151339665,4438886.150349819,287.46570343771697,2871.6044601454914,52.69091812793263,1.9715367078380783,9.425810331996107e-05
0.063,5329.632738141461,4.11704215509393,4438157.797905048,287.4586952646204,2874.5994468960776,52.666207201253954,1.9719793649868536,0.00010411901037789769
0.07,5512.78402791701,4.1224311315379225,4437448.775684615,287.45187225504213,2877.509417299103,52.64213683074991,1.9724095279740006,0.00011376261299731686
0.07700000000000001,5646.584681122345,4.128624920523783,4436754.665451962,287.44519195104493,2880.245537882399,52.6185623369546,1.9728300317926994,0.00012323648088062057
0.08400000000000002,5741.206158498954,4.135021048189997,4436071.933838601,287.4386203910692,2882.7578153870477,52.59536792175642,1.9732431383186555,0.0001325789513351993
0.09100000000000003,5824.935260349657,4.141286726497659,4435397.807987575,287.43213091852846,2885.0236517985186,52.5724626583949,1.973650619197426,0.00014182028621232703
0.09800000000000003,5887.150582817975,4.147242702029344,4434730.144028615,287.4257029201669,2887.0622325551626,52.54977621865341,1.9740538420635025,0.00015098398454408616
0.10500000000000004,5930.520864720775,4.15288839417577,4434067.307836591,287.4193206815851,2888.905930413109,52.52725498357779,1.9744538480455003,0.00016008801491973517
0.11200000000000004,5959.650173968402,4.158250848855648,4433408.059167265,287.4129722743634,2890.588965391528,52.504858254036506,1.9748514264647485,0.00016914604588164796
0.11900000000000005,5980.866048097552,4.163363000759914,4432751.460351717,287.40664867888194,2892.1450510774457,52.482555259995706,1.9752471735087909,0.00017816842780235374
0.12600000000000006,5996.220583217063,4.168247592604778,4432096.805854049,287.4003431074656,2893.595345173526,52.46032285066911,1.9756415373895428,0.00018716295728197612
0.13300000000000006,6007.236239862051,4.1729510845152795,4431443.569608261,287.3940504983244,2894.963695828841,52.43814376616686,1.976034852051043,0.00019613545238556478
0.14000000000000007,6015.042260881176,4.177513462923925,4430791.360376479,287.38776708642337,2896.269355321723,52.416005172138966,1.9764273656686229,0.00020509024273673835
0.14700000000000008,6020.475189373741,4.181967648462298,4430139.887771512,287.3814900768144,2897.527522472555,52.393897544231564,1.9768192623116212,0.00021403054369532084
0.15400000000000008,6024.154175977939,4.18633984969619,4429488.936574909,287.3752173976887,2898.7499733840873,52.371813824840316,1.9772106782997023,0.00022295873976170024
0.1610000000000001,6026.537167217523,4.190650475546471,4428838.347449646,287.36894751489245,2899.9457135180132,52.34974878984462,1.9776017144756688,0.00023187659769158354
0.1680000000000001,6027.962712819129,4.194915180030522,4428188.002522749,287.36267929325805,2901.1215656205773,52.327698575281694,1.9779924453726432,0.00024078542592128463
0.1750000000000001,6028.6810079440575,4.199145843653021,4427537.814644746,287.3564118932876,2902.282664234362,52.305660324787574,1.9783829260388495,0.0002496861933763629
0.1820000000000001,6028.876906538995,4.203351415581871,4426887.71940821,287.35014469436743,2903.4328547596347,52.283631927655065,1.978773197106271,0.00025857961776565134
0.1890000000000001,6028.686962883358,4.207538600771755,4426237.669227423,287.34387723780503,2904.575007037881,52.26161182457655,1.979163288548401,0.0002674662310649196
0.22900000000000012,6028.212040370991,4.211712403365316,4425587.628952649,287.3376091846267,2905.7112574073763,52.239598863775655,1.979553222462562,0.00027634642801129986
0.26900000000000013,6019.705218423653,4.219443624982065,4421866.927868365,287.3017187698935,2907.7554924369624,52.11386618305011,1.981779818280872,0.0003270114785097084
0.3090000000000001,6011.070436907363,4.242892774497915,4418142.1970108375,287.2657667348082,2914.089832992946,51.98822518315844,1.9840039784501713,0.00037751543774643527
0.3490000000000001,6004.409214244729,4.265606933123247,4414413.847113244,287.2297569424574,2920.2377587244264,51.862689143957105,1.9862254181115568,0.00042785516794573993
0.38900000000000007,5996.575352996659,4.2899140930939055,4410682.883574701,287.1936990146439,2926.8095228440047,51.737290494777284,1.988443484914889,0.00047802120033993276
0.42900000000000005,5989.570667796487,4.313278912853126,4406948.74697373,287.1575874599435,2933.129323253701,51.61201093318587,1.9906585039855706,0.000528020954924418
0.46900000000000003,5983.945032597838,4.3373635965294675,4403211.839187652,287.1214260781659,2938.9860543424033,51.48686327236602,1.9928702020574294,0.0005778514935168859
0.509,5981.487497598094,4.361263610058668,4399471.887532974,287.08521214491594,2943.7243593391395,51.36183854350797,1.9950787252662623,0.0006275170796948548
0.549,5978.461371560672,4.385587677822714,4395728.8631533515,287.048945292025,2948.5400748331526,51.23693567911832,1.9972840680892092,0.0006770193323741172
0.5890000000000001,5975.787530009229,4.409382067812067,4391982.410451542,287.0126219814328,2953.251350454947,51.11214315117799,1.9994864260486638,0.0007263632805164325
0.6290000000000001,5972.983385181982,4.433549483423735,4388232.72938416,286.9762440574353,2958.0335828066254,50.98746730142457,2.001685651912291,0.0007755480524995738
0.6690000000000002,5970.36016042995,4.457539765418696,4384479.694947387,286.9398102133264,2962.7801145494195,50.862904052960594,2.0038817987625808,0.0008245761811192861
0.7090000000000002,5967.7229900350485,4.4817046319052265,4380723.3893617755,286.9033211526166,2967.5591212520735,50.73845597518455,2.006074792599633,0.0008734480057574039
0.7490000000000002,5965.194518201968,4.505821590996297,4376963.763728241,286.86677630562747,2972.327507316795,50.614121452674404,2.0082646399994966,0.0009221652175128755
0.7890000000000003,5962.697993742638,4.530032331418449,4373200.851639196,286.8301759037683,2977.1127122002413,50.48990151138396,2.010451297310288,0.0009707286307115826
0.8290000000000003,5960.281816488686,4.554247616726027,4369434.634301517,286.7935196689548,2981.897470968362,50.36579551568848,2.0126347530402744,0.0010191395848506955
0.8690000000000003,5957.915931925234,4.578524538990151,4365665.125648841,286.7568076411544,2986.6928320552993,50.241803878855166,2.0148149759829224,0.0010673990640398972
0.9090000000000004,5955.619481347749,4.602827517766612,4361892.318670861,286.7200396561985,2991.49192085516,50.1179263566074,2.0169919478425764,0.0011155082505598195
0.9490000000000004,5953.3808241494235,4.627179626241445,4358116.219245854,286.68321567515613,2996.2992007570238,49.99416312078823,2.0191656427093934,0.0011634681778295946
0.9890000000000004,5948.712970594612,4.651566832038309,4354336.824832614,286.64633557674523,2999.797269503093,49.87051408414575,2.02133603994742,0.0012112799485977101
1.0290000000000004,5942.866462763501,4.676612715597053,4350554.137890445,286.6093992881469,3003.1811278743085,49.746979324690955,2.023503116089549,0.0012589445985599517
1.0690000000000004,5937.309381697043,4.700981828710272,4346767.6591360355,286.5724018321892,3006.473678412979,49.62354316853999,2.0256671477268227,0.0013064681757812314
1.1090000000000004,5931.549377023746,4.72571546917547,4342977.572359557,286.53534489942456,3009.8128231627647,49.50021147396454,2.0278280014544507,0.0013538498153914179
1.1490000000000005,5925.878062634305,4.750307784727911,4339183.766386088,286.49822729794846,3013.132202646602,49.37698083396982,2.029985720529678,0.0014010915995303554
1.1890000000000005,5920.130188660293,4.775051191952055,4335386.301434858,286.4610495111745,3016.4701958105284,49.253853227576855,2.0321402460407905,0.0014481938810246848
1.2290000000000005,5914.3987789664325,4.799780511170137,4331585.140743439,286.4238110733043,3019.80513940405,49.130827602355424,2.0342915769788226,0.0014951579646372793
1.2690000000000006,5908.630742863395,4.824589900613184,4327780.302029924,286.3865120514829,3023.149379190577,49.00790461661771,2.036439680115638,0.0015419846002028897
1.3090000000000006,5902.8555368840025,4.849426643993603,4323971.772016795,286.3491522087993,3026.4960095868796,48.88508396771108,2.038584540731081,0.0015886748300584547
1.3490000000000006,5897.056084637803,4.874321068833065,4320159.554591985,286.3117314761867,3029.8490041601926,48.76236589466386,2.040726134095999,0.00163522951379118
1.3890000000000007,5891.241532173109,4.899256619588114,4316343.64371881,286.2742496867971,3033.206197414482,48.639750334316055,2.0428644414666106,0.0016816495948784934
1.4290000000000007,5885.406301806154,4.924243166927665,4312524.038655304,286.2367067253171,3036.5688822961883,48.5172373944838,2.0449994411154173,0.0017279359518168585
1.4690000000000007,5876.645749067859,4.949275707090879,4308700.735421244,286.1991024441843,3039.108951249016,48.39482708902888,2.047131113341402,0.001774089481605274
1.5090000000000008,5865.826658708092,4.974818051478596,4304873.73157954,286.1614367105536,3041.2907554410094,48.272519485953886,2.049259437664017,0.001820111053477575
1.5490000000000008,5855.11789687395,5.000043138641407,4301042.668201521,286.1237058790079,3043.4430744092165,48.15030369363755,2.0513846004297296,0.0018660049337633554
1.5890000000000009,5844.463826390316,5.025324097015577,4297207.54059078,286.0859097865076,3045.5990355757895,48.028179780352616,2.0535065811107107,0.0019117719492322504
1.629000000000001,5833.872723824942,5.0506525774868205,4293368.340780227,286.04804823721156,3047.75798964879,47.906147720467516,2.055625361167444,0.0019574129458392237
1.669000000000001,5823.339353035565,5.076036005026766,4289525.06482705,286.0101210743801,3049.9205475996473,47.78420761844801,2.0577409198251972,0.0020029287193715274
1.709000000000001,5812.865358192978,5.101471323552702,4285677.706590496,285.97212811903995,3052.0864577123516,47.66235951762312,2.0598532376726126,0.002048320074997936
1.749000000000001,5802.449052165828,5.126960580134318,4281826.260738372,285.93406919962786,3054.255887710961,47.540603492359175,2.061962294922582,0.002093587798865806
1.789000000000001,5792.090376584888,5.152503322328964,4277970.721280442,285.89594413750734,3056.428799831537,47.41893960311076,2.0640680722535936,0.002138732672157968
1.829000000000001,5781.788496739004,5.1781003182001095,4274111.082284264,285.8577527540294,3058.6052564851766,47.29736791826305,2.0661705503953476,0.0021837554645052844
1.869000000000001,5773.414575658814,5.203751741459406,4270247.337529333,285.81949486710573,3060.7829702387967,47.17588850353946,2.0682697103237753,0.002228656937399076
1.9090000000000011,5765.559415599782,5.229444120953859,4266379.480676202,285.78117029287245,3062.9631326391604,47.054501427117636,2.070365533161289,0.0022734378427656365
1.9490000000000012,5763.87711643688,5.255234371780332,4262507.515526102,285.74277894744364,3064.392799056631,46.93320706967074,2.072457994380283,0.002318098828654736
1.9890000000000012,5763.006362599045,5.281494493982393,4258631.412064838,285.70432041097183,3065.6605126708205,46.81200479537807,2.0745470886347706,0.002362640844428515
2.0290000000000012,5761.841537312334,5.307371560806984,4254750.8397642225,285.6657912776209,3066.908855923289,46.6908849285554,2.076632979301546,0.00240706757271145
2.0690000000000013,5760.342336244065,5.333415017830629,4250865.856436702,285.62719199181316,3068.1643103078814,46.569849543703214,2.0787156103229525,0.0024513791056982367
2.1090000000000013,5758.51444317356,5.3594747648010825,4246976.427727224,285.58852208239523,3069.4199240340295,46.44889794125099,2.0807949775861805,0.0024955763710452663
2.1490000000000014,5756.330236529175,5.385611704577093,4243082.555500802,285.54978143728226,3070.678504849643,46.32803051826025,2.0828710566944837,0.0025396599559432535
2.1890000000000014,5753.778799354549,5.411801307223892,4239184.226497692,285.51096979332596,3071.9389196563056,46.207247223269434,2.08494383176781,0.0025836305757528616
2.2290000000000014,5750.8433522718005,5.438054194469769,4235281.433399715,285.472086945746,3073.2016563856273,46.08654818910791,2.087013283654251,0.002627488882620623
2.2690000000000015,5747.511423218573,5.464366571095106,4231374.166210321,285.43313266236197,3074.466538120801,45.96593347439395,2.0890793947366535,0.002671235543673562
2.3090000000000015,5743.770485101206,5.490740530763885,4227462.415768005,285.39410671856115,3075.733659430162,45.845403168688705,2.0911421469749687,0.0027148712094351487
2.3490000000000015,5739.609982226156,5.517175773235746,4223546.172321475,285.3550088830935,3077.003004464053,45.72495734990693,2.0932015226941556,0.0027583965267523615
2.3890000000000016,5734.471890009452,5.5436729683989965,4219625.426105939,285.3158389238065,3078.084195346595,45.604596101493186,2.0952575042626114,0.00280181213374825
2.4290000000000016,5727.605097108699,5.5703457870347375,4215700.167111918,285.27659660532845,3078.667325676041,45.484319505526116,2.097310074217106,0.0028451186619973725
2.4690000000000016,5720.440616167837,5.597244397483653,4211770.304995351,285.2372808875286,3079.251119133917,45.36412527761918,2.0993592588926555,0.002888317439435989
2.5090000000000017,5713.411536179693,5.623900542262008,4207835.650691029,285.19788973856475,3079.829855175628,45.24400824629222,2.1014051377897616,0.002931410638325615
2.5490000000000017,5706.355177388578,5.6507428481522775,4203896.266400138,285.1584236389236,3080.41212987956,45.12397067725799,2.1034476532181836,0.002974398210894983
2.5890000000000017,5699.326777357969,5.677608928719976,4199952.114706282,285.11888207124406,3080.994597835597,45.0040119006886,2.1054868017692616,0.0030172809752699414
2.629000000000002,5692.30764534734,5.7045550861433645,4196003.19232839,285.0792648591495,3081.57842062964,44.88413225899892,2.1075225615043283,0.003060059443019254
2.669000000000002,5685.30405191221,5.731563008340473,4192049.484300814,285.0395717082748,3082.1602589638424,44.76433175682231,2.1095549168256342,0.0031027342195028124
2.709000000000002,5678.312047039392,5.758640488784839,4188090.9792760853,284.99980235964335,3082.7432070076898,44.64461051107972,2.1115838501901347,0.0031453058707712226
2.749000000000002,5671.333964626597,5.7857833433777355,4184127.663657694,284.95995653078177,3083.3271921171004,44.52496857889541,2.1136093452692664,0.0031877749744416302
2.789000000000002,5664.368724520053,5.8129945618198535,4180159.5251834174,284.9200339516987,3083.9122725223947,44.40540606243703,2.115631385022784,0.0032301420889239815
2.829000000000002,5656.8977988424185,5.840273648418904,4176186.5508506736,284.8800343440323,3084.463462868004,44.28592304824541,2.1176499528094124,0.0032724077713615508
2.869000000000002,5642.5106565566675,5.867641010864642,4172208.727650774,284.8399574284187,3084.5445855091257,44.166519628676824,2.1196650319915227,0.0033145725714169155
2.909000000000002,5627.91426249686,5.895320237991868,4168226.028929837,284.79980278692415,3084.6229371967356,44.04719550708941,2.1216766131314593,0.003356637146373585
2.949000000000002,5613.653813630463,5.922765375713574,4164238.265857314,284.75956836340777,3084.7009513014787,43.92794571024744,2.123684772031089,0.003398603506929289
2.989000000000002,5599.4832994128565,5.950388648994332,4160245.490315533,284.71925452695814,3084.779374727021,43.80877224983583,2.125689457120094,0.003440471620385453
3.029000000000002,5585.473463038524,5.978052910806318,4156247.6685555046,284.67886078203645,3084.8578428326455,43.689674664704924,2.1276906620143947,0.0034822421691391566
3.069000000000002,5571.602639497678,6.005796909684392,4152244.790894745,284.6383868749453,3084.9364679342675,43.57065319536739,2.129688367645703,0.0035239156262019344
3.109000000000002,5557.873337627377,6.033611226210656,4148236.8411592836,284.59783248538463,3085.0152181917365,43.45170790121937,2.131682558334986,0.0035654925119612026
3.1490000000000022,5544.282167440332,6.061498713558761,4144223.8045300343,284.5571973056883,3085.0941004470856,43.332838886828185,2.1336732176741475,0.0036069733285668624
3.1890000000000023,5530.827188372723,6.08945923470041,4140205.6656206646,284.5164810213832,3085.1731117786126,43.214046246618736,2.135660329529062,0.0036483585760329275
3.2290000000000023,5517.506177189659,6.117493359887968,4136182.4089320153,284.47568331577145,3085.2522516371923,43.09533007794661,2.1376438778003055,0.0036896487485266424
3.2690000000000023,5506.668916953046,6.145601498934177,4132154.0187469553,284.43480386885284,3085.2631127886407,42.976690478101844,2.1396238464755224,0.003730844335303673
3.3090000000000024,5506.339941356927,6.1738184001363745,4128120.4791532955,284.39384235754255,3084.970925878451,42.858127544983105,2.141600219615278,0.003771945820582356
3.3490000000000024,5506.064640973361,6.202222942279721,4124081.751543611,284.35279822691285,3084.6750090665732,42.73964073908296,2.143572992834661,0.003812953865964665
3.3890000000000025,5505.982855535917,6.23054130448398,4120037.727999263,284.31167021508,3084.380300979247,42.62122757013293,2.1455421968416424,0.0038538696837096633
3.4290000000000025,5506.090723450491,6.258989202265573,4115988.424397364,284.2704583166778,3084.0817385181936,42.502889070856284,2.1475077989398255,0.003894693472898022
3.4690000000000025,5506.390954237904,6.287502751312823,4111933.815445897,284.2291621066794,3083.7820523409414,42.38462511242836,2.149469787418857,0.00393542576017448
3.5090000000000026,5506.8914347355,6.316095085352619,4107873.884628814,284.1877812481047,3083.4817092213766,42.26643582105493,2.151428146053271,0.003976066994844551
3.5490000000000026,5507.5981563953,6.344765208194619,4103808.6142098345,284.14631539034264,3083.18071486322,42.14832129480859,2.1533828591940956,0.0040166176298029824
3.5890000000000026,5508.517630177309,6.373513745111672,4099737.98637103,284.10476418072403,3082.879061803887,42.0302816358491,2.1553339111883214,0.00405707811240832
3.6290000000000027,5509.656596760061,6.402341156862547,4095661.9830797203,284.06312726315105,3082.5767435808602,41.91231694669302,2.15728128644416,0.004097448885604212
3.6690000000000027,5511.022094846765,6.431247899662011,4091580.5860886103,284.02140427808257,3082.2737538952774,41.79442733024777,2.1592249694287466,0.004137730387967452
3.7090000000000027,5507.693607320115,6.460234440250603,4087493.7769396952,283.9795948625583,3081.8022313456477,41.67661288995238,2.1611649446639722,0.004177923053725086
3.7490000000000028,5501.255760804897,6.489368350067736,4083401.5369615946,283.9376986501556,3081.2219052251257,41.55887372973463,2.163101196725628,0.004218027312822555
3.789000000000003,5494.805351800944,6.5185498307620815,4079303.8047854914,283.8957148355345,3080.640485327795,41.44120877435958,2.165033731181161,0.004258043922109761
3.829000000000003,5488.374046910594,6.547787524996679,4075200.5483908704,283.8536429117718,3080.0583421142474,41.32361777753996,2.1669625388528337,0.004297973399951823
