time,thrust,OF,ox_tank.pressure,ox_tank.temperature,combustion_chamber.temperature,propellant_mass,propellant_CG,combustion_chamber.fuel_grain.geometry.length_regressed
0.007,241.18830916129576,4.2513238224629415,4212926.827357169,285.2488539898789,2781.030940303669,53.54693569270768,1.9557180648464803,1.3879358387563389e-05
0.014,1039.93798230874,3.9726063927071906,4211972.956027231,285.23930895007936,2830.81008000804,53.51175342460923,1.956346396994586,2.7678444396016346e-05
0.021,2200.311982071436,3.924080347044836,4211087.133964447,285.2304434067637,2842.43431718418,53.479009973240395,1.9569275304918945,4.0670817585254755e-05
0.028,3114.671388871009,3.89132005054251,4210263.634003143,285.22220034890034,2844.6120359855117,53.44850333232665,1.9574655949573088,5.2914825507418847e-05
0.035,3843.612816177866,3.8698743997956084,4209494.354165099,285.21449893374387,2844.8598962277283,53.41994617903918,1.9579663077597147,6.449902847619949e-05
0.042,4363.861745307277,3.8581182633208257,4208770.812493329,285.2072544522257,2845.5713876280015,53.39303669924574,1.958435596212644,7.551938901256322e-05
0.049,4772.296814389114,3.8540453404844524,4208084.822095032,285.20038509395357,2847.3206613250295,53.36748271741642,1.958879139085903,8.60710794072854e-05
0.056,5078.805659428548,3.8553315601192018,4207428.918245419,285.1938162328355,2849.958652005919,53.34301714896137,1.959302083329007,9.624281795934876e-05
0.063,5306.831350652892,3.859930147126141,4206796.6226844685,285.1874830833693,2853.1218775447023,53.31940770902555,1.9597088742235205,0.00010611298183644139
0.07,5475.446431579062,3.8662356814358283,4206182.5285346005,285.18133156021264,2856.4510009203455,53.29646019420758,1.9601032074572884,0.00011574791694436145
0.07700000000000001,5599.514474774005,3.8731619916711533,4205582.266175742,285.17531794436445,2859.7008138574893,53.27401744745141,1.960488060423038,0.000125201833518622
0.08400000000000002,5690.42821846979,3.8800714226985904,4204992.393692236,285.169407792397,2862.7252551515508,53.25195555425219,1.9608657725560206,0.0001345177912464434
0.09100000000000003,5757.929205475456,3.886645940754461,4204410.253381362,285.16357450425676,2865.481376088659,53.23017876544642,1.9612381466890587,0.00014372924733618405
0.09800000000000003,5811.459585819877,3.892766035722856,4203833.824467895,285.1577978517351,2867.959366734247,53.20861424409154,1.9616065514268601,0.00015286175748003005
0.10500000000000004,5850.753242555986,3.8984170382314796,4203261.589015584,285.15206263805305,2870.1916028719174,53.18720726178007,1.961972013503318,0.0001619345814366701
0.11200000000000004,5879.511149059806,3.9036729703676656,4202692.418744864,285.14635756604173,2872.224859557044,53.16591713275082,1.9623352952924842,0.0001709620683347153
0.11900000000000005,5900.49545937427,3.908600107456089,4202125.477758593,285.14067426502874,2874.0979796433103,53.14471371330223,1.9626969611044458,0.00017995486606944795
0.12600000000000006,5915.758357083371,3.913265200398741,4201560.149732408,285.13500656237056,2875.8460664374275,53.123574778633184,1.963057426693902,0.00018892083438896238
0.13300000000000006,5925.732932277566,3.917727111764783,4200995.981799479,285.1293499219145,2877.497227653164,53.10248399970423,1.9634169973363313,0.00019786575318094334
0.14000000000000007,5932.635792659844,3.922042386402106,4200432.642037557,285.1237010185125,2879.07905359117,53.08142940984882,1.9637758966288197,0.00020679386141409718
0.14700000000000008,5937.551270995811,3.926240674060574,4199869.886474476,285.1180574077326,2880.6069540507883,53.06040221460705,1.9641342888087368,0.00021570827656142974
0.15400000000000008,5941.023255087163,3.9303502382731734,4199307.5369216055,285.11241730397205,2882.094284846786,53.03939599177338,1.9644922937440392,0.00022461127704877663
0.1610000000000001,5943.447424016121,3.934394475114748,4198745.463619045,285.1067794067027,2883.551789288081,53.01840606521439,1.96484999865641,0.00023350452359979294
0.1680000000000001,5945.1113585582825,3.938390864727577,4198183.572143947,285.10114276937793,2884.987456074733,52.99742903259016,1.9652074669576036,0.00024238922628749918
0.1750000000000001,5946.22399730425,3.942352392574325,4197621.793829992,285.09550670348875,2886.407198283416,52.976462419794,1.9655647447121873,0.00025126626681308713
0.1820000000000001,5946.937099934417,3.9462886463849993,4197060.078766241,285.0898707084428,2887.815371267491,52.95550442847299,1.965921865357989,0.00026013628786237874
0.22200000000000011,5947.360872347121,3.950206674924086,4196498.390689431,285.08423442040254,2889.215171948098,52.93455375187296,1.9662788531483224,0.00026899975828117355
0.2620000000000001,5941.302089937857,3.957623411514732,4193283.718672813,285.0519657754634,2891.820019604977,52.814891569999745,1.9683176254219088,0.0003195688993647372
0.3020000000000001,5937.750194121524,3.979761687689855,4190065.667637705,285.0196446895911,2899.68820714163,52.69531568625917,1.9703548842600138,0.0003699788210438362
0.3420000000000001,5936.704187566849,4.000426357160393,4186844.4660402522,284.9872733774602,2907.046222434612,52.57583410260574,1.9723904515212105,0.00042022798068320696
0.38200000000000006,5934.295978029837,4.0236965808750265,4183621.5162499542,284.95486586614544,2915.321848584702,52.45649653075732,1.9744233721549767,0.00047030029953210446
0.42200000000000004,5928.231014882409,4.045009388559628,4180395.8668566756,284.9224125267439,2921.4172181380613,52.33726877829485,1.9764542559744211,0.0005202090422525597
0.462,5918.547947363173,4.0687816902746485,4177168.350966385,284.8899216777036,2927.9729120097145,52.21818015052334,1.9784825296487552,0.0005699452999139026
0.502,5911.144043920024,4.090271713630675,4173937.6999438433,284.85738048045175,2933.9046043881317,52.099185382344984,1.9805090096628484,0.0006195260642989828
0.542,5902.453544067997,4.113419088663537,4170704.73878267,284.82479717334843,2940.28622695296,51.980313491056805,1.9825331289329684,0.0006689424994067207
0.5820000000000001,5895.1239574940655,4.1353563640194455,4167468.8459726595,284.79216542257734,2946.3372540595697,51.86154228553394,1.9845552745343933,0.0007182034953950526
0.6220000000000001,5887.185453236417,4.158271146749962,4164230.5043872027,284.7594900262204,2952.6530088735462,51.74288862083724,1.9865751068888295,0.0007673044291678569
0.6620000000000001,5880.088851748943,4.1805035539571085,4160989.363349718,284.7267673754767,2958.781987052735,51.624339943200425,1.9885928342246835,0.0008162508032549283
0.7020000000000002,5872.747518016689,4.20331643178274,4157745.702543384,284.69400022278575,2965.0675708085305,51.50590591413996,1.9906082517433554,0.0008650404619279499
0.7420000000000002,5865.960330421715,4.225748925277441,4154499.3239058726,284.66118649659785,2971.248611303348,51.387579398520714,1.9926214674744656,0.0009136769991718417
0.7820000000000003,5859.124596280772,4.248533918374625,4151250.3913099957,284.62832778205103,2977.5242316247113,51.269365976883165,1.9946323533350667,0.000962159639897582
0.8220000000000003,5852.681717602312,4.27111268616757,4147998.79353039,284.59542288324474,2983.7427002482686,51.15126159266263,1.9966409607494695,0.0010104908866162038
0.8620000000000003,5846.295468437483,4.293912619012114,4144744.6281244545,284.5624727160885,2990.0200497925794,51.03326950256367,1.9986472055764344,0.0010586707347696375
0.9020000000000004,5840.210415090044,4.316607326504744,4141487.8334503905,284.5294765851995,2996.267715029599,50.915387407395265,2.0006511072244826,0.0011067010549838223
0.9420000000000004,5836.237385222081,4.3394472932308785,4138228.4688604544,284.4964350204448,3001.7335279247786,50.79761723457537,2.002652606943192,0.0011545822699611543
0.9820000000000004,5834.075874046103,4.362591420516362,4134966.5011014026,284.46334761328325,3006.398363538482,50.67995769286266,2.004651706055329,0.0012023158783460392
1.0220000000000005,5831.742840318323,4.3857062645055125,4131701.7045786246,284.43021200144807,3011.053462398286,50.562400844704,2.0066485293801013,0.0012499055946238813
1.0620000000000005,5829.591560732444,4.408627290548232,4128433.9513625368,284.3970268091628,3015.668783611483,50.44494218883804,2.0086431381237753,0.0012973539439420393
1.1020000000000005,5827.457309263395,4.4317344253294095,4125163.314578779,284.36379270094096,3020.3196271190795,50.32758420077098,2.010635464410603,0.0013446610910395587
1.1420000000000006,5825.463000610153,4.454779140723478,4121889.7458656463,284.33050910724006,3024.956906789651,50.21032515949412,2.0126255184301516,0.0013918285963530445
1.1820000000000006,5823.525207768727,4.477939600385739,4118613.283900448,284.2971763428561,3029.6158135437468,50.09316635641894,2.0146132548447704,0.0014388569994728399
1.2220000000000006,5821.703970728328,4.501090357216035,4115333.905850419,284.2637940969521,3034.271587376427,49.97610696808622,2.016598667757745,0.0014857475345817137
1.2620000000000007,5819.959470280148,4.524320719071797,4112051.631972642,284.2303624969172,3038.9418534127653,49.859147660359106,2.0185817239762835,0.0015325009276038065
1.3020000000000007,5818.32144667369,4.547568095561365,4108766.45192364,284.1968813584272,3043.6142705263223,49.742288053362216,2.020562409922573,0.001579118240766961
1.3420000000000007,5816.771379764568,4.570877260696387,4105478.3766418886,284.16335071375204,3048.29766857484,49.62552850321794,2.022540698669404,0.0016256002806408635
1.3820000000000008,5815.324353652016,4.5942171446453095,4102187.4018464303,284.1297704398406,3052.985928282703,49.508868850481335,2.0245165730767964,0.0016719480134034384
1.4220000000000008,5813.972233149068,4.617610221745323,4098893.533707954,284.0961405200325,3057.683479279316,49.39230929876632,2.02649000954917,0.001718162274268279
1.4620000000000009,5810.954165944873,4.641041185303703,4095596.7708103834,284.06246086004114,3061.710429086264,49.275849798262854,2.028460989418701,0.001764243971255784
1.502000000000001,5805.361635834899,4.664865176139546,4092297.116824589,284.02873141731175,3064.9854267052274,49.159490478035615,2.030429490959125,0.0018101939429203335
1.542000000000001,5799.535319438959,4.6886481038155905,4088994.327695731,283.99494961456355,3068.250472150108,49.04322307622516,2.032395647303421,0.0018560157599961736
1.582000000000001,5793.878781336735,4.712206018751087,4085688.2706156136,283.9611140071306,3071.484339334901,48.92704315596125,2.0343595210540326,0.0019017117128970148
1.622000000000001,5788.168986934777,4.7359675652379,4082379.031808462,283.92722539049214,3074.7445310560624,48.81095371446398,2.0363210380194765,0.0019472816504529267
1.662000000000001,5782.550227657697,4.75967231957298,4079066.5711464905,283.8932832668859,3077.99625309419,48.69495347392498,2.0382802029883282,0.001992726808451925
1.702000000000001,5776.929037891529,4.783489780452358,4075750.93013711,283.85928797453425,3081.2621536594006,48.579043919128445,2.0402369701126553,0.0020380475141777263
1.742000000000001,5771.365177941013,4.807310505688934,4072432.097395624,283.8252393096143,3084.527628279177,48.46322475297402,2.0421913265565563,0.002083244665873867
1.7820000000000011,5765.819294406261,4.831206113414003,4069110.095477744,283.79113741625855,3087.8022380153834,48.34749682478261,2.044143238619672,0.0021283187815883545
1.8220000000000012,5760.316363511665,4.855130288246871,4065784.9246333484,283.756982209693,3091.0798129922946,48.231860236601435,2.0460926865535405,0.0021732706132232423
1.8620000000000012,5754.839487233232,4.879113776946011,4062456.5993643138,283.7227737513945,3094.3644561584265,48.11631557190371,2.048039641978721,0.002218100749122059
1.9020000000000012,5749.399125981708,4.903136807828734,4059125.1245932574,283.6885120043765,3097.6535398734154,48.00086309591916,2.0499840825685767,0.0022628098723914162
1.9420000000000013,5743.987821474575,4.927212832573063,4055790.5112554417,283.65419699338594,3100.9488600456934,47.885503277894735,2.0519259824596765,0.0023073985927219375
1.9820000000000013,5737.334320504394,4.951333382805377,4052452.766071337,283.61982869975026,3103.304729142222,47.770236449043956,2.0538653185235685,0.0023518675565056377
2.022000000000001,5729.680314468228,4.976320207966966,4049111.898283285,283.58540713067464,3105.4712196209084,47.65506302742034,2.0558020662409486,0.0023962173747703866
2.062000000000001,5722.6942913432285,5.000508656804439,4045767.365817928,283.5509266077653,3107.5677615367,47.53996515193538,2.057736535600479,0.002440454472241509
2.102000000000001,5715.9175873337945,5.025070557105782,4042419.3076814404,283.51638846664895,3109.6945019726854,47.42494763373366,2.0596686215571824,0.002484578015168734
2.1420000000000012,5709.590257694478,5.049513984216748,4039067.621642844,283.4817915552853,3111.8102440331922,47.31000728468003,2.0615983655627037,0.0025285897115364907
2.1820000000000013,5703.584116347956,5.074117379455918,4035712.3416064233,283.4471361252218,3113.9382984805625,47.195145435059885,2.0635257265993636,0.002572489823300739
2.2220000000000013,5697.968153012441,5.098726318465248,4032353.425238167,283.4124216403709,3116.065726507585,47.08036090068753,2.0654507097368877,0.002616279402788349
2.2620000000000013,5692.709774448035,5.123426870418795,4028990.871947336,283.37764799504424,3118.1997268137575,46.965653883398815,2.0673732948733896,0.002659959054939504
2.3020000000000014,5687.830875230157,5.1481727126661365,4025624.6579329213,283.34281484294803,3120.336413102954,46.851023827268534,2.0692934758706047,0.0027035296165009094
2.3420000000000014,5683.32736681181,5.17298973842522,4022254.7716108467,283.30792196337126,3122.477944880587,46.73647058591863,2.0712112392530573,0.002746991787085583
2.3820000000000014,5679.210227655911,5.197864823465528,4018881.194466914,283.27296906313535,3124.6232151485146,46.62199379269384,2.073126575688542,0.0027903463280435177
2.4220000000000015,5673.9706475498215,5.222805731928684,4015503.9113038257,283.2379558826328,3126.7711756599015,46.5075931971665,2.075039473853454,0.0028335939565853527
2.4620000000000015,5668.228403912938,5.247815443750415,4012122.9048053976,283.2028821395231,3128.4262269249284,46.39326848693734,2.076949923674519,0.002876735401919484
2.5020000000000016,5662.466519393087,5.273025072778078,4008738.15432566,283.16774751608665,3129.662987204405,46.27901924875696,2.0788579170277246,0.0029197714173088067
2.5420000000000016,5656.647538953244,5.298230222888469,4005349.552425472,283.1325507919208,3130.8976206103493,46.16484225769994,2.0807634969098983,0.0029627036238047844
2.5820000000000016,5650.876676716572,5.323417693514034,4001957.0544300484,283.09729139598414,3132.130941361092,46.050736352010524,2.082666668874757,0.0030055329874851245
2.6220000000000017,5645.106267506169,5.348708882768697,3998560.674582767,283.06196936862625,3133.3686103740843,45.93670229102412,2.0845674037355755,0.003048259869611449
2.6620000000000017,5639.358521909028,5.374043903526334,3995160.3968630615,283.02658443515276,3134.6078171243835,45.822739856117494,2.08646569016989,0.0030908849297770057
2.7020000000000017,5633.6227698363,5.399451801494452,3991756.2194125173,282.991136467586,3135.8499222600935,45.70884929257504,2.0883615085699976,0.003133408677608589
2.7420000000000018,5627.903785701794,5.424919427191391,3988348.13348467,282.9556252657232,3137.094307212773,45.595030627544766,2.090254843400253,0.0031758316845658823
2.782000000000002,5622.199121513982,5.450453549353475,3984936.1333604045,282.92005066031976,3138.341287533794,45.48128399074284,2.0921456773875473,0.003218154484654919
2.822000000000002,5616.50969901332,5.47605157306278,3981520.2116964455,282.88441246464237,3139.5907396406096,45.367609464250606,2.0940339942370403,0.003260377620966546
2.862000000000002,5610.834878695583,5.501715291190996,3978100.3617000487,282.84871049712206,3140.842745646578,45.25400715260645,2.0959197773627207,0.003302501624117059
2.902000000000002,5605.174746549183,5.527444450882144,3974676.5761168776,282.8129445707935,3142.0972917196154,45.14047715023094,2.0978030104738763,0.003344527022366359
2.942000000000002,5599.1903195303785,5.553239752091974,3971248.8477009763,282.7771144981906,3142.907685521085,45.0270195565183,2.0996836773006007,0.003386454337052916
2.982000000000002,5592.732009062996,5.579393413979971,3967817.168998004,282.74122008907585,3143.4859989778774,44.91363446888071,2.101561761717272,0.003428284084806035
3.022000000000002,5586.257328856258,5.605401890333008,3964381.352248772,282.7052592648512,3144.059553169159,44.80031625162193,2.1034373507701347,0.00347001852394285
3.062000000000002,5579.810943741135,5.631447740374424,3960941.3767991005,282.66923169213084,3144.6337404863557,44.6870646221353,2.1053104351217353,0.0035116582671078614
3.102000000000002,5573.369243373132,5.657583278755162,3957497.243680845,282.6331372638884,3145.2095518215965,44.57387999301218,2.107180993033321,0.003553203710058196
3.142000000000002,5566.941698945318,5.683780261372393,3954048.9394403663,282.59697572074293,3145.7864008276783,44.460762320936446,2.109049011056783,0.0035946553825050476
3.182000000000002,5560.524353962739,5.710050996015467,3950596.4565139087,282.5607468643434,3146.364542752443,44.34771175454017,2.110914472390854,0.003636013750932708
3.222000000000002,5554.118543206737,5.736391189897917,3947139.7847870607,282.5244504689077,3146.9438856555635,44.234728366473846,2.1127773616903194,0.0036772793001071708
3.2620000000000022,5547.723585724992,5.762803122820351,3943678.9149374706,282.4880863162659,3147.5241126927426,44.12181225933878,2.1146376631636308,0.003718452500996271
3.3020000000000023,5541.3396851781345,5.789286653755458,3940213.8371270048,282.45165418212844,3148.1030182767176,44.00896352432066,2.116495361312739,0.00375953382336525
3.3420000000000023,5534.965433483336,5.815843226900931,3936744.541419013,282.415153840456,3148.6831731341545,43.89618225439115,2.118350440694745,0.0038005237318422436
3.3820000000000023,5527.4993261832315,5.842471035829367,3933271.0171618573,282.37858505696,3149.187705227742,43.783468524990894,2.120202886264977,0.003841422691780871
3.4220000000000024,5513.968908608553,5.8692193918417015,3929793.254442518,282.3419476043922,3149.268073551827,43.67082243964498,2.122052682560794,0.003882231155612111
3.4620000000000024,5500.286706787644,5.896244056914804,3926311.214840729,282.3052409541635,3149.34616225796,43.558243216895036,2.123899829964033,0.003922949836042597
3.5020000000000024,5486.916490324922,5.923046223246219,3922824.745246848,282.2684633659413,3149.4239563376736,43.44572651301385,2.1257443922696266,0.003963580503272737
3.5420000000000025,5473.616956541652,5.950045439165565,3919333.8966713506,282.2316152499862,3149.5022156477035,43.333274369178014,2.1275863195549523,0.004004123011225589
3.5820000000000025,5460.471541849862,5.977078944807962,3915838.6359048537,282.19469612762856,3149.5805359147967,43.22088620307087,2.129425608694888,0.004044577994237697
3.6220000000000026,5447.450394364341,6.004202353214768,3912338.9583900063,282.1577058217309,3149.6590643357276,43.10856233015008,2.1312622406620134,0.004084945814464639
3.6620000000000026,5434.560279001365,6.031398375975392,3908834.850102725,282.120644054384,3149.7377511701584,42.996302776474536,2.133096201645534,0.004125226916274328
3.7020000000000026,5421.796561815669,6.05867304860709,3905326.2997897873,282.0835105761322,3149.816611656474,42.884107659189866,2.1349274762867014,0.004165421712917763
3.7420000000000027,5409.15815191593,6.086025107873518,3901813.2951330366,282.04630512542843,3149.8956402883186,42.771977067499314,2.13675604979116,0.0042055306219938296
3.7820000000000027,5396.642929808458,6.113455544441476,3898295.823932368,282.00902744113336,3149.974838065726,42.6599110993294,2.138581907276938,0.004245554054609695
3.8220000000000027,5384.498782831977,6.140964665358706,3894773.873744856,281.97167725868644,3150.0467075583515,42.54790985018881,2.1404050339705027,0.004285492418735222
3.8620000000000028,5384.512957392308,6.168557066470454,3891247.4319927925,281.9342543112393,3149.757373482051,42.435973416521215,2.14222541514596,0.0043253461182598965
