time,thrust,OF,ox_tank.pressure,ox_tank.temperature,combustion_chamber.temperature,propellant_mass,propellant_CG,combustion_chamber.fuel_grain.geometry.length_regressed
0.007,248.12014371337034,6.142290058948957,5198696.136501255,294.34443199921265,2809.492436589591,51.509920406029124,1.997499376775813,1.040002555208595e-05
0.014,1109.68798708377,5.835736361180022,5197190.657714788,294.3315877273548,2964.2668143395113,51.47161248809318,1.9983383364924572,2.0755130817284387e-05
0.021,2370.941031034087,5.75418751391336,5195766.745789637,294.3194367118086,3014.191245603877,51.43532567408221,1.9991293519633495,3.0689092671763815e-05
0.028,3400.9950735541634,5.691871844593399,5194420.094811399,294.3079426377693,3040.8501834395283,51.40095456706199,1.9998751102874908,4.0218812089512715e-05
0.035,4228.487333751066,5.642374120559327,5193142.475417977,294.2970356401941,3057.308286297319,51.368297099141415,2.000580526748627,4.938221063398047e-05
0.042,4885.4955986581035,5.604501411243672,5191924.873825065,294.28663908277593,3068.264389871891,51.337131545676876,2.0012509261995923,5.8222688615351006e-05
0.049,5402.155680847325,5.576848071757702,5190758.271350809,294.27667621660913,3075.8966024614956,51.30723569079808,2.0018915961446373,6.678510484590353e-05
0.056,5805.114894944601,5.557715475665034,5189634.128221228,294.2670743192229,3081.3752241986085,51.27839879822918,2.002507513972732,7.511306391234868e-05
0.063,6117.200728275364,5.545295180267401,5188544.695623723,294.25776736924087,3085.406995576911,51.25042939551953,2.003103174725528,8.324698788624165e-05
0.07,6357.486250110558,5.537910716451682,5187483.1914160745,294.24869755725734,3088.4210422254446,51.2231597091986,2.0036824975023775,9.122287613160272e-05
0.07700000000000001,6541.062584413372,5.534179310796787,5186443.856376536,294.23981577597243,3090.6410007512313,51.1964471421442,2.0042487997258083,9.907172744137333e-05
0.08400000000000002,6681.149496199303,5.533007389663706,5185421.916517204,294.2310813068142,3092.3502133571037,51.17017340976779,2.004804824027703,0.00010681952318104521
0.09100000000000003,6787.893243404874,5.533584119730473,5184413.494292372,294.22246106859586,3093.708338388771,51.14424239028219,2.005352793106895,0.0001144875489955622
0.09800000000000003,6869.010703493524,5.535340875233342,5183415.492482958,294.21392863130995,3094.7885211140274,51.118577279691294,2.0058944790467783,0.0001220929203713611
0.10500000000000004,6930.161106708477,5.5378909724703265,5182425.469389289,294.2054631543349,3095.6299084676443,51.093117517315676,2.006431276645393,0.0001296491986848687
0.11200000000000004,6975.973994757267,5.54097948114824,5181441.519463975,294.1970483699813,3096.2651581072537,51.06781583655433,2.006964272921891,0.00013716700764749244
0.11900000000000005,7010.286812281397,5.5444358711738415,5180462.166413473,294.1886716726427,3096.771522463349,51.04263561886534,2.0074943089938464,0.00014465460088825178
0.12600000000000006,7035.866786460257,5.548141531993361,5179486.272926847,294.1803233493012,3097.180795607352,51.017548656669476,2.008022032124324,0.00015211834982456924
0.13300000000000006,7054.82524081994,5.5520196771845765,5178512.967422334,294.17199595491417,3097.515965421385,50.992533336518825,2.00854793784091,0.0001595631443615189
0.14000000000000007,7068.768428872502,5.556018877469983,5177541.584345753,294.16368380319494,3097.7947130369143,50.96757315769997,2.0090724041755026,0.00016699272239390772
0.14700000000000008,7078.916034717403,5.560104159023145,5176571.616820939,294.15538256264995,3098.0305797959986,50.94265555700661,2.0095957187682614,0.00017440993275271658
0.15400000000000008,7086.192876807839,5.56425142176817,5175602.679591703,294.1470889403505,3098.2339038408254,50.91777098882746,2.01011810004732,0.000181816941897966
0.1610000000000001,7091.299433803527,5.56844382962045,5174634.480278328,294.1388004366071,3098.4125582256142,50.89291221161331,2.0106397136347134,0.00018921539472790502
0.1680000000000001,7094.765833252735,5.572669464227244,5173666.797232214,294.13051515592474,3098.5725271233337,50.868073738167226,2.011160684971687,0.00019660653873618746
0.1750000000000001,7096.993099358533,5.576919785420885,5172699.462559378,294.12223166205746,3098.7178868394203,50.84325141428842,2.0116811089872404,0.00020399131932494072
0.1820000000000001,7098.284299354014,5.581188593623105,5171732.349155056,294.1139488672916,3098.8527359633335,50.81844209702394,2.0122010574753126,0.00021137045266304537
0.1890000000000001,7098.868527467941,5.585471381028511,5170765.36083211,294.1056659481347,3098.9796671996714,50.793643409740255,2.012720584706839,0.00021874448118824853
0.22900000000000012,7098.918879738421,5.589764823698063,5169798.424813993,294.09738228118977,3099.100611960761,50.76885355590514,2.013239731694012,0.00022611381582380704
0.26900000000000013,7088.795870735259,5.598086997473803,5164263.746564273,294.04994408739424,3099.212697546728,50.627258280576115,2.016201810089381,0.00026816033459632627
0.3090000000000001,7080.435581269512,5.6222339234158705,5158723.187226408,294.00241616961944,3099.7878052307415,50.485766042520424,2.019155695257125,0.00031009603016406097
0.3490000000000001,7071.05479455456,5.6475340389004725,5153177.356348719,293.95480357257844,3100.38201816764,50.34439268139925,2.022101032680865,0.0003519180719773219
0.38900000000000007,7062.0468460755,5.672149485527068,5147625.578793027,293.90710031446736,3100.9607351220093,50.20312252763998,2.0250381804014204,0.0003936307165180967
0.42900000000000005,7052.944674477442,5.6970362531936,5142068.051013969,293.8593078918952,3101.5450376553645,50.061961294665586,2.027967013009462,0.00043523339689896626
0.46900000000000003,7043.895194373502,5.7218719272272125,5136504.668403439,293.81142521407764,3102.1277005030474,49.920907327458195,2.0308875714158257,0.0004767271942429946
0.509,7034.852327960008,5.74675905298241,5130935.421886756,293.7634520097173,3102.7110267518597,49.77996131091768,2.0337998438692066,0.0005181126566518703
0.549,7025.829862915886,5.771665925895312,5125360.272430224,293.7153877480849,3103.2943008795382,49.639123203207966,2.036703834981956,0.0005593904870051409
0.5890000000000001,7016.823155243119,5.796602670673809,5119779.190101719,293.6672319750997,3103.877748945898,49.49839318868301,2.039599544323384,0.0006005613298197294
0.6290000000000001,7007.833209200206,5.821566468838855,5114192.14200191,293.618984209383,3104.461305379658,49.35777138402658,2.042486973004627,0.000641625837021952
0.6690000000000002,6996.566178652159,5.846558480055353,5108599.095967579,293.57064397416,3104.8860805335803,49.217257928325076,2.045366121662045,0.0006825846479921585
0.7090000000000002,6980.635364432722,5.87166454108034,5103000.019438483,293.5222107874704,3104.9827934055425,49.07685295561613,2.0482369910681184,0.0007234383957977645
0.7490000000000002,6964.761813769278,5.896884894303329,5097394.797623104,293.4736834533606,3105.077249084018,48.93655462616401,2.0510996256193734,0.0007641881414180362
0.7890000000000003,6949.301835602322,5.921974018999459,5091783.256115578,293.4250602549091,3105.171204042152,48.7963596874834,2.053954100499696,0.0008048352463184372
0.8290000000000003,6934.091602135736,5.947147645973196,5086165.411341516,293.37634112484415,3105.2652257731443,48.656269491043574,2.056800388999704,0.0008453800478929169
0.8690000000000003,6918.991600225446,5.972337151942617,5080541.214411535,293.3275254283581,3105.3580511493465,48.51628382167681,2.059638499041247,0.0008858232221907383
0.9090000000000004,6903.752622382739,5.997563626226771,5074910.633860603,293.2786126797491,3105.449034905226,48.376402888015164,2.0624684292116484,0.0009261653451342162
0.9490000000000004,6888.615457164692,6.022820687271629,5069273.63122478,293.2296023306162,3105.5398393102837,48.23662673643943,2.0652901816695963,0.0009664070215347083
0.9890000000000004,6873.586382026417,6.048104849666934,5063630.169109104,293.18049383982316,3105.630522285981,48.0969554446242,2.068103757884469,0.0010065488426581539
1.0290000000000004,6858.660386630427,6.073421387441444,5057980.214336619,293.131286700962,3105.7210945343104,47.95738919612621,2.070909157019098,0.0010465913701515489
1.0690000000000004,6843.836920000475,6.098768885124777,5052323.732035498,293.0819803909348,3105.811548440345,47.81792813929114,2.07370637901646,0.001086535167015391
1.1090000000000004,6829.114260569064,6.124147973668861,5046660.687568814,293.03257438672074,3105.9018839718683,47.67857243331579,2.0764954235918482,0.0011263807876382645
1.1490000000000005,6815.828608298023,6.149558767535433,5040991.046035624,292.9830681610136,3105.865341698921,47.53932223643403,2.0792762904892337,0.0011661287804715374
1.1890000000000005,6804.874963622473,6.175061084667366,5035314.772384209,292.933461183189,3105.601866309166,47.4001777086667,2.082048979420195,0.0012057796875260616
1.2290000000000005,6793.811910059375,6.200639330988929,5029631.776420333,292.88375243806854,3105.336169312397,47.261137717803,2.08481351791066,0.0012453343237348827
1.2690000000000006,6782.814603972404,6.2261571541947625,5023941.942447605,292.8339406834096,3105.0711934293777,47.122200547863386,2.0875699457798023,0.0012847936219672602
1.3090000000000006,6771.824534626907,6.251737570874977,5018245.261726736,292.7840256100383,3104.8055907973935,46.98336701011788,2.0903182483457465,0.0013241579629652005
1.3490000000000006,6760.854647433493,6.277345060633789,5012541.691130754,292.73400660580586,3104.539699205344,46.84463711204324,2.093058428233959,0.0013634278953742393
1.3890000000000007,6749.90228933752,6.302987457586516,5006831.194979014,292.68388312161727,3104.27344672629,46.70601104199847,2.0957904841819426,0.0014026039232691047
1.4290000000000007,6738.967527940583,6.328663667900846,5001113.736035039,292.6336545925824,3104.0068394270843,46.567488957753554,2.098514415581505,0.0014416865518217387
1.4690000000000007,6728.050055396302,6.354374067496674,4995389.277051181,292.58332045152974,3103.7391065741745,46.42907102279826,2.101230221699228,0.0014806762795691029
1.5090000000000008,6717.149190040482,6.3801190955748535,4989657.780561718,292.5328801271695,3103.468905597173,46.29075740156504,2.103937901777824,0.0015195735995213217
1.5490000000000008,6706.264086603918,6.405899196899108,4983919.208673193,292.48233304222276,3103.198319761526,46.15254825464409,2.1066374551363265,0.0015583790002594517
1.5890000000000009,6695.395611339196,6.431713493102651,4978173.522905917,292.43167861199174,3102.927364916559,46.014443735239155,2.1093288812427797,0.0015970929667578377
1.629000000000001,6690.300873363412,6.45756298617306,4972420.685264855,292.3809162537754,3102.5058356224413,45.87644401404648,2.112012179187834,0.0016357159751662724
1.669000000000001,6689.389605456218,6.483508762877193,4966660.65733272,292.33004537885955,3101.9753923343824,45.738549258276606,2.1146873481282853,0.0016742484973584783
1.709000000000001,6688.652867262957,6.509470021896,4960893.346031149,292.2790649128244,3101.4442444143074,45.600758384641026,2.117354413407305,0.0017126912647468916
1.749000000000001,6688.140761192233,6.535439632601491,4955118.690569634,292.22797406299105,3100.9131379516857,45.46307106710079,2.120013384293302,0.0017510448422149072
1.789000000000001,6687.85687544649,6.561454746335088,4949336.660286622,292.17677230054267,3100.3812870221013,45.325487680143056,2.122664255342265,0.0017893096414840915
1.829000000000001,6687.80686351889,6.587504442464995,4943547.213745908,292.1254589989968,3099.848897628456,45.18800835702538,2.1253070261564275,0.0018274861206199148
1.869000000000001,6687.997933187369,6.6135909583360615,4937750.311388498,292.0740335460498,3099.315927525967,45.050633280862385,2.1279416952839,0.0018655747225106254
1.9090000000000011,6688.437094940645,6.6397142784848056,4931945.913163683,292.02249532259066,3098.7823737890344,44.913362630293776,2.1305682613548105,0.0019035758864170808
1.9490000000000012,6689.131740402873,6.665874584094569,4926133.978778523,291.9708437048826,3098.2482307789874,44.776196585293164,2.1331867229593735,0.001941490046811816
1.9890000000000012,6690.089552285429,6.692072079010726,4920314.467705632,291.91907806460546,3097.7134922678033,44.639135327427205,2.13579707864204,0.0019793176333895014
2.0290000000000012,6691.318527888722,6.718306951212736,4914487.339166985,291.8671977686842,3097.1781523585987,44.502179039570535,2.138399326906951,0.0020170590711903586
2.0690000000000013,6692.744949351129,6.744579390986899,4908652.552133927,291.81520217926123,3096.640616340813,44.365327905991236,2.140993466215732,0.0020547147806446587
2.1090000000000013,6678.409458340261,6.770890125485218,4902810.065323082,291.7630906536317,3095.9124827595747,44.22858211234531,2.1435794949872085,0.0020922851776351745
2.1490000000000014,6664.042368626537,6.797294596379434,4896959.836726342,291.71086254001705,3095.1813444389404,44.091941835192756,2.1461574118111133,0.0021297706757365475
2.1890000000000014,6649.756189800039,6.823679834166175,4891101.775993249,291.6585167518262,3094.451035758367,43.955406173519194,2.148727237212165,0.0021671719080057755
2.2290000000000014,6635.51445834468,6.8501182476590365,4885235.855092841,291.60605275585476,3093.719596040351,43.81897563841555,2.1512889627909986,0.0022044892093920463
2.2690000000000015,6621.322594860883,6.876593401595707,4879362.029331353,291.55346986743416,3092.9874363620065,43.68265037340599,2.153842587646428,0.002241722987296957
2.3090000000000015,6607.17978122363,6.903107430232168,4873480.256016679,291.5007674170454,3092.2545063311672,43.54643057462721,2.1563881097874473,0.002278873634231201
2.3490000000000015,6593.085346950345,6.929660617606416,4867590.492173521,291.44794472988013,3091.520794992536,43.410316439538406,2.1589255271802954,0.0023159415385316548
2.3890000000000016,6579.038832162812,6.956253036611048,4861692.69445349,291.39500112500195,3090.7862985462716,43.274308165019804,2.1614548377865153,0.002352927084806846
2.4290000000000016,6565.039716507011,6.982884894104749,4855786.819247538,291.34193591632123,3090.0510096073385,43.13840594998225,2.163976039509899,0.002389830653450175
2.4690000000000016,6551.0874938859315,7.009556365359484,4849872.822652055,291.28874841225877,3089.3149215971275,43.002609994706646,2.1664891302097207,0.002426652620828677
2.5090000000000017,6537.181661943969,7.0362676276658025,4843950.660468681,291.23543791571103,3088.578027916187,42.86692050093947,2.168994107698712,0.0024633933593146105
2.5490000000000017,6525.601252214013,7.063018857428549,4838020.288200333,291.182003723981,3087.7539127448936,42.73133767190439,2.1714909697427456,0.002500053237333535
2.5890000000000017,6515.418172492583,7.08982553293747,4832081.66104687,291.12844512870504,3086.874950752024,42.595861712307354,2.1739797140606996,0.002536632619412869
2.629000000000002,6505.231562181735,7.116666518296463,4826134.721029864,291.07476129953767,3085.995143828464,42.46049254610995,2.1764603439239,0.0025731319238528113
2.669000000000002,6495.05025083247,7.143542194634081,4820179.418377769,291.02095147688885,3085.114126749617,42.32523028759933,2.178932858764517,0.002609551526311352
2.709000000000002,6484.870843749193,7.170460697545507,4814215.709078484,290.9670149501025,3084.2294816108233,42.19007518604925,2.181397255313815,0.00264589177140422
2.749000000000002,6474.692515464226,7.197420747129815,4808243.546585752,290.9129509825643,3083.343860823748,42.0550274437038,2.183853531219273,0.0026821530099532536
2.789000000000002,6464.51671267714,7.22442081381463,4802262.883618755,290.858758827885,3082.45732715422,41.92008725553018,2.1863016842519487,0.002718335590889787
2.829000000000002,6454.342831905041,7.25146239727989,4796273.67368305,290.80443774364636,3081.5698311277165,41.78525484241398,2.1887417116539285,0.002754439854557447
2.869000000000002,6444.170732269111,7.278545371032579,4790275.869660787,290.7499869786067,3080.6813745701334,41.6505304204928,2.191173610743893,0.002790466138999876
2.909000000000002,6434.000235385668,7.305669923553649,4784269.424126218,290.69540577551874,3079.7919501118977,41.51591420814968,2.1935973787794096,0.002826414778581153
2.949000000000002,6423.83115479986,7.3328362252417065,4778254.289313511,290.64069337079866,3078.9015507757385,41.381406425424515,2.1960130129687703,0.0028622861041482364
2.989000000000002,6413.623520073576,7.360044436244566,4772230.417105743,290.5858489943867,3077.96595266712,41.24700729389068,2.1984205104736616,0.002898080443097904
3.029000000000002,6403.36170094077,7.38729589093935,4766197.759032875,290.5308718696883,3076.9693528381317,41.11271703672843,2.2008198684080207,0.002933798119403184
3.069000000000002,6393.099432452831,7.414589912012498,4760156.265304863,290.47576120470904,3075.97165385032,40.9785358581462,2.2032110842356087,0.002969439457791089
3.109000000000002,6382.838511315369,7.441924967666973,4754105.885753584,290.42051620057543,3074.9729292857382,40.84446396384675,2.205594155371257,0.003005004779644929
3.1490000000000022,6372.57824020517,7.469302894028161,4748046.571216118,290.3651360641407,3073.9731124586096,40.71050159062571,2.2079690786127317,0.0030404943971095045
3.1890000000000023,6362.318493783135,7.496723474984627,4741978.27179242,290.30961999205533,3072.9722089201427,40.57664896912199,2.2103358508619446,0.0030759086206291176
3.2290000000000023,6352.059105929572,7.524186889570808,4735900.937240159,290.25396717432477,3071.970211295706,40.44290633240339,2.212694468959441,0.0031112477572580732
3.2690000000000023,6341.799900879727,7.551693300917975,4729814.516939867,290.1981767939474,3070.9668731947577,40.309273915345344,2.215044929696906,0.0031465121108232817
3.3090000000000024,6331.540579472818,7.579243003752071,4723718.959879737,290.14224802673056,3069.9594646617525,40.17575195443497,2.217387229821444,0.0031817019820004145
3.3490000000000024,6321.279005715901,7.606837739419011,4717614.214535623,290.0861800401418,3068.9508635152783,40.042340685372096,2.219721366081594,0.003216817668827913
3.3890000000000025,6311.017505647575,7.634474215305508,4711500.227615083,290.0299719817056,3067.9412063656646,39.90904031683173,2.222047335723482,0.003251859471957992
3.4290000000000025,6300.727882986668,7.662154689438707,4705376.94719227,289.9736230077567,3066.897654176957,39.775851096661704,2.224365135235767,0.003286827681504271
3.4690000000000025,6290.405251808797,7.6898739787683486,4699244.320532772,289.9171322634262,3065.808064615006,39.64277326608095,2.2266747612211457,0.0033217225862126336
3.5090000000000026,6280.088199843726,7.71763501129212,4693102.298463863,289.8604989228914,3064.7174468563635,39.509807151119304,2.2289762086793066,0.0033565444553679174
3.5490000000000026,6269.7685787674345,7.745445687207557,4686950.832064548,289.8037221589435,3063.6254174977726,39.376953092862855,2.2312694723335045,0.0033912935527383565
3.5890000000000026,6259.44820601273,7.773299111155254,4680789.866273602,289.7468010838854,3062.5322376803215,39.24421131465166,2.2335545491132396,0.0034259701628683984
3.6290000000000027,6249.126770263618,7.8011968634300946,4674619.34701895,289.6897348151848,3061.4378500325834,39.1115820713605,2.235831435346812,0.003460574561492971
3.6690000000000027,6238.804051262973,7.829139035807177,4668439.2196857855,289.63252246130014,3060.342249133646,38.979065617521734,2.2381001273612946,0.003495107021891587
3.7090000000000027,6228.479902445717,7.857125711326656,4662249.429174522,289.5751631221602,3059.245430911695,38.84666220869045,2.2403606214576097,0.0035295678146484294
3.7490000000000028,6218.154155453703,7.885157040880408,4656049.919947316,289.5176558895408,3058.1473886934596,38.71437210255686,2.2426129138907114,0.003563957207463755
3.789000000000003,6207.826644764234,7.91323315674422,4649840.6360054165,289.4599998468008,3057.0481164921257,38.58219555862599,2.2448570008765216,0.0035982754652478634
3.829000000000003,6197.497205844898,7.941354190760365,4643621.520884246,289.4021940687811,3055.947608362926,38.45013283826755,2.247092878592012,0.0036325228501414963
