time,thrust,OF,ox_tank.pressure,ox_tank.temperature,combustion_chamber.temperature,propellant_mass,propellant_CG,combustion_chamber.fuel_grain.geometry.length_regressed
0.007,246.25547570934833,4.885177574194378,4804981.3994406955,290.88339828384466,2827.1956643726835,54.4024193943703,1.9057032064576835,1.3019490703367117e-05
0.014,1135.4478202171822,4.603394177531749,4803782.99937233,290.87253780966023,2940.5155494797423,54.36518923469991,1.906468733631237,2.5976729552016228e-05
0.021,2394.1760980654776,4.529931181805677,4802659.535177844,290.86235456785096,2968.0067650666924,54.33020982086356,1.9071836220233087,3.83254642218125e-05
0.028,3402.604027447625,4.474474072575744,4801606.3208426135,290.85280643480684,2977.9850352212247,54.297343117007344,1.9078512088239266,5.009484229780086e-05
0.035,4194.498879800207,4.431674337390826,4800615.172206259,290.84381951578274,2981.76494391767,54.266346143356586,1.9084771248084353,6.134398148617517e-05
0.042,4810.068905345422,4.400264160109312,4799677.225908854,290.8353136916297,2983.2794002344317,54.23695484263112,1.909067403311094,7.214008670386465e-05
0.049,5305.055924908645,4.378799808915148,4798783.733206317,290.82720982150914,2984.153436459774,54.208907805139305,1.9096279542994294,8.2551939908374e-05
0.056,5662.207920343769,4.365199148463449,4797926.520111914,290.8194339240496,2984.97635298363,54.18196016855479,1.910164265854912,9.264571682717804e-05
0.063,5912.690386303733,4.357535748797761,4797098.33111906,290.81192030435204,2985.940477398536,54.15589411544667,1.9106811856820374,0.00010248155369841781
0.07,6118.572429341025,4.354064877794864,4796292.962505422,290.80461277268915,2987.0311630156193,54.13052307368818,1.9111828422728345,0.00011211184734165131
0.07700000000000001,6272.87288002265,4.353427634136105,4795505.279437086,290.79746480833063,2988.2047846922037,54.10569239991978,1.9116726417594065,0.0001215806155595333
0.08400000000000002,6388.279984644542,4.354616537571152,4794731.139001026,290.7904388686697,2989.4005062852493,54.081277189647835,1.912153325072709,0.00013092378498525816
0.09100000000000003,6474.96206048232,4.356950657616512,4793967.268955308,290.7835052951537,2990.572703544714,54.05717871001687,1.912627052486475,0.00014016998290128
0.09800000000000003,6538.735343660476,4.359987828389261,4793211.126592055,290.7766410373886,2991.70927370286,54.033320197664246,1.9130954997125467,0.00014934160210464605
0.10500000000000004,6585.293092097172,4.363451146400804,4792460.76084468,290.76982840547254,2992.7939007870423,54.00964272922301,1.9135599506934635,0.000158455909643967
0.11200000000000004,6619.488842150666,4.367171889195929,4791714.688950336,290.7630539534195,2993.835117874057,53.986101514894955,1.914021380005814,0.00016752607534740972
0.11900000000000005,6644.5004647137,4.371047785025885,4790971.792135437,290.756307534439,2994.8365187851127,53.96266275675178,1.914480522217357,0.0001765620620260244
0.12600000000000006,6662.699853699363,4.375018213724043,4790231.23093997,290.7495815338576,2995.804018225232,53.939301094815555,1.9149379279954333,0.00018557135920463613
0.13300000000000006,6675.852391806085,4.379047071327397,4789492.378046389,290.74287026047176,2996.7438932501054,53.91599757917712,1.9153940085025267,0.00019455957132328574
0.14000000000000007,6685.269290546756,4.383112762987096,4788754.766088758,290.7361694735455,2997.660976264812,53.892738093411964,1.9158490698240298,0.0002035308780793198
0.14700000000000008,6691.92289210605,4.387202278279057,4788018.047650986,290.7294760202149,2998.560750270718,53.8695121457634,1.9163033393152593,0.00021248838902916412
0.15400000000000008,6696.533493383778,4.391307607912242,4787281.964904935,290.72278756022973,2999.4479504139654,53.84631195145612,1.9167569855745772,0.00022143441366365604
0.1610000000000001,6699.634240848072,4.395423744732834,4786546.326744241,290.71610235862045,3000.325628098766,53.8231317415202,1.917210133470261,0.00023037066527947748
0.1680000000000001,6701.619481051109,4.399547522156477,4785810.991648412,290.709419130302,3001.1961598563717,53.79996724483466,1.9176628753918417,0.0002392984139915767
0.1750000000000001,6702.78076664154,4.403676881632052,4785075.854885401,290.7027369240053,3002.061367546749,53.776815301341394,1.9181152796464471,0.0002482186011113498
0.1820000000000001,6703.333582874638,4.407810456319592,4784340.838985175,290.6960550358646,3002.9226344325625,53.753673574161,1.9185673967047874,0.00025713192433186833
0.22200000000000011,6703.437157906148,4.411947320354425,4783605.886662977,290.68937294521794,3003.7810035799516,53.73054033577266,1.9190192638381538,0.0002660389010198781
0.2620000000000001,6695.3425409431475,4.41923521409511,4779399.707979524,290.6511158933478,3005.226551447225,53.598409830170844,1.92159877106946,0.0003168593051013375
0.3020000000000001,6687.322885279147,4.443339985666603,4775189.753007943,290.61279885544513,3010.156481215125,53.46638114885198,1.924173888462091,0.00036752507840785004
0.3420000000000001,6681.398928404845,4.4661068057648645,4770975.799426482,290.57441970085256,3014.8241276757917,53.33444775850062,1.9267447342100776,0.00041803933662956264
0.38200000000000006,6674.3612297602085,4.490472985523008,4766758.987235297,290.5359887131556,3019.8107094133834,53.20264380515755,1.9293105520709528,0.0004683932765094403
0.42200000000000004,6668.083737992287,4.513935376561203,4762538.672371502,290.4974999276343,3024.614752307698,53.07095010365127,1.931871734189966,0.0005185937163213175
0.462,6661.37634244416,4.5380310308779395,4758315.265933111,290.4589569961191,3029.544278858942,52.93937896742398,1.9344279958703172,0.0005686382454589543
0.502,6654.985791872683,4.561784159653211,4754088.508656246,290.42035745630926,3034.4038178429396,52.80792274095379,1.9369794816280548,0.0006185302641773397
0.542,6648.442004029482,4.585812438421571,4749858.562863471,290.3817026931085,3039.317048330984,52.676586318860224,1.9395260671040713,0.0006682695030742272
0.5820000000000001,6642.039564290957,4.609725866080422,4745625.325075611,290.34299166366026,3044.20592531758,52.54536670688635,1.9420677973222973,0.0007178579687015616
0.6220000000000001,6636.094010283269,4.633771561134969,4741388.858793954,290.3042248507433,3048.9004344725163,52.414265870009125,1.9446046114963889,0.0007672962150797059
0.6620000000000001,6633.104293545657,4.657862991770306,4737149.122161842,290.26540177331066,3052.2974835063055,52.283282659998044,1.9471365157237224,0.0008165856815029841
0.7020000000000002,6629.594046106113,4.682353464299933,4732906.076306581,290.2265219763079,3055.744281386184,52.152416030630015,1.9496635141302283,0.0008657277602198534
0.7420000000000002,6626.399267486416,4.706391870775529,4728659.364008496,290.18758208333657,3059.1278488529456,52.02165558834003,1.9521858098489648,0.000914726502556955
0.7820000000000003,6623.113455581049,4.730744829216704,4724409.169483459,290.14858367845875,3062.5531755267248,51.89100690756517,1.9547032660552817,0.0009635813575508037
0.8220000000000003,6619.979229742758,4.754975740720648,4720155.378891894,290.1095256123399,3065.9606317969315,51.76046679791561,1.9572159327419631,0.001012294273130938
0.8620000000000003,6616.855710474924,4.77934356430311,4715898.054420789,290.07040835036406,3069.3855796152625,51.63003724732192,1.9597237501168303,0.0010608657027629629
0.9020000000000004,6613.82536788165,4.803696439525268,4711637.154757484,290.03123140717315,3072.80729746358,51.4997172137085,1.9622267229980193,0.0011092969516566095
0.9420000000000004,6610.840638682714,4.82812428377434,4707372.698959708,289.99199485166315,3076.2380526335605,51.369507429301,1.9647248188523343,0.0011575888068948571
0.9820000000000004,6607.929599028035,4.852574863566096,4703104.670469338,289.9526984248238,3079.670726665262,51.23940759086808,1.967218027345614,0.0012057423372434824
1.0220000000000005,6605.076428580259,4.87707941391483,4698833.07327067,289.9133420562015,3083.1095780534615,51.10941800088572,1.969706325592026,0.001253758427349764
1.0620000000000005,6602.290794337712,4.901620215352684,4694557.899079338,289.8739255619314,3086.5521958207737,50.979538610084006,1.972189698393746,0.001301638049270421
1.1020000000000005,6599.567629838803,4.926208223235017,4690279.146495244,289.8344488211152,3090.0000734234113,50.84976957534573,1.9746681264528039,0.0013493821049367753
1.1420000000000006,6590.774133110079,4.950837614202072,4685996.809840904,289.7949116729515,3092.5206658715724,50.720110934996036,1.9771415932148042,0.0013969915179918224
1.1820000000000006,6578.518292741924,4.976403540938195,4681710.885663712,289.75531397669243,3094.8035530317825,50.59056279756065,1.9796100808868518,0.0014444671808474482
1.2220000000000006,6566.625719487367,5.001243846749112,4677420.599084724,289.715648456494,3097.0183284268605,50.461103024982414,1.9820740381619084,0.0014918161850304837
1.2620000000000007,6554.68405899026,5.026285019353318,4673126.049410413,289.675915906842,3099.2493754952598,50.33173480384249,1.9845333815239121,0.0015390385046508185
1.3020000000000007,6542.856928855262,5.051305032882217,4668827.177662379,289.6361156583844,3101.47755900166,50.20245675576888,1.9869881234243758,0.0015861353797600969
1.3420000000000007,6531.066850666794,5.076409848263668,4664523.99981605,289.5962477344805,3103.7120114693585,50.073269669453424,1.9894382311186019,0.001633107435630168
1.3820000000000008,6519.348985014464,5.1015502583397945,4660216.496439736,289.5563118300795,3105.9484929129594,49.94417332029791,1.9918836932648518,0.0016799555697024821
1.4220000000000008,6507.686089965626,5.1267499089096935,4655904.664367911,289.5163077901487,3108.189039044369,49.81516795705927,1.994324488825361,0.0017266805380839977
1.4620000000000009,6496.085248136253,5.151998342583067,4651588.49258155,289.47623538618694,3110.4327489591938,49.686253608992104,1.9967606015350738,0.0017732831481165954
1.502000000000001,6484.54230324242,5.177301017942171,4647267.973435741,289.43609442031544,3112.6800915600274,49.557430407797526,1.9991920131805918,0.001819764169316279
1.542000000000001,6473.058294250122,5.202655987698977,4642943.097451574,289.3958846769456,3114.9308984901654,49.42869843847638,2.0016187067034172,0.001866124374783143
1.582000000000001,6461.63188334393,5.228064740290936,4638613.855727484,289.3556059451584,3117.1852967715627,49.30005780822377,2.004040664762132,0.0019123645223402016
1.622000000000001,6456.823687038272,5.253527175052102,4634280.238828643,289.3152580083754,3118.72264899412,49.1715086147055,2.006457870387516,0.0019584853634249345
1.662000000000001,6453.975002059365,5.279269375168735,4629942.23729934,289.27484064911334,3120.0345577607263,49.04305096062839,2.008870306676103,0.002004487639232441
1.702000000000001,6451.208524929361,5.304876796100591,4625599.655585755,289.23435191344385,3121.3385043315343,48.91467969063415,2.0112780653772995,0.002050373515369372
1.742000000000001,6448.523974854276,5.330569074481642,4621252.504490572,289.19379176783025,3122.6459601844895,48.786395516704154,2.013681116924666,0.002096143541634037
1.7820000000000011,6445.933028858194,5.356306987253136,4616900.765551083,289.1531599051876,3123.955002767974,48.65819832746671,2.0160794489163836,0.0021417984843482532
1.8220000000000012,6443.432497437707,5.382106694206443,4612544.431293707,289.11245612016205,3125.266416141242,48.53008832789914,2.0184730425777153,0.002187339015470165
1.8620000000000012,6441.025574063657,5.407961998525677,4608183.489389181,289.07168016128674,3126.579897675853,48.40206559150381,2.0208618819910034,0.002232765834679169
1.9020000000000012,6438.712939220198,5.433876079577211,4603817.929276014,289.03083179281265,3127.894953699146,48.27413024717315,2.023245950244372,0.0022780796187143824
1.9420000000000013,6436.4961990981465,5.459848423481756,4599447.7393960515,288.98991076886915,3129.2103432144268,48.14628240130419,2.0256252310297778,0.0023232810426299347
1.9820000000000013,6434.376170243496,5.485880094427803,4595072.908160395,288.9489168424803,3130.527955859615,48.018522164979856,2.0279997080808974,0.002368370772549247
2.022000000000001,6432.355287975308,5.511970257222978,4590693.423387318,288.90784976028664,3131.847757113275,47.8908496382322,2.0303693654914894,0.0024133494700219267
2.062000000000001,6430.057000268313,5.538120337557818,4586309.2734117275,288.86670927293557,3133.122237786298,47.7632649410405,2.0327341870787907,0.0024582177838072847
2.102000000000001,6422.522852296891,5.56435970743194,4581920.446090435,288.8254951257495,3133.7372092400346,47.635768185488075,2.0350941569496324,0.0025029763574870405
2.1420000000000012,6414.47966401612,5.59103658971162,4577526.905968132,288.78420684404466,3134.356481940193,47.50835884177125,2.0374492723780775,0.002547625998831783
2.1820000000000013,6406.654445599127,5.61732274853765,4573128.326463967,288.7428412128139,3134.9671581919065,47.38102831964085,2.0397996942297105,0.002592169655463171
2.2220000000000013,6398.773200002364,5.64384955816205,4568724.821716024,288.7013991567587,3135.5827729658963,47.253780289770475,2.042145334060763,0.002636606989335178
2.2620000000000013,6390.93144950131,5.67037735803879,4564316.332261508,288.6598799675749,3136.198082466515,47.126613608373006,2.044486201355136,0.0026809389410849703
2.3020000000000014,6383.096053829339,5.696990997912129,4559902.859637874,288.6182835098918,3136.81494739769,46.999528828215716,2.0468222712843396,0.002725165992579333
2.3420000000000014,6375.278012348997,5.723661763461418,4555484.384072798,288.5766094467499,3137.432734392669,46.87252591802151,2.0491535309579003,0.0027692887745414765
2.3820000000000014,6367.473306087346,5.750400070184149,4551060.892821219,288.53485750642324,3138.051670491918,46.745605046294386,2.0514799635463383,0.0028133078582215916
2.4220000000000015,6359.682996469621,5.777202960534509,4546632.37049313,288.4930273912633,3138.671688375415,46.618766314237156,2.0538015536795635,0.0028572238263866448
2.4620000000000015,6351.906442411124,5.8040720183364725,4542198.802332525,288.4511188086074,3139.2928207427244,46.49200984614623,2.0561182856187226,0.0029010372494638367
2.5020000000000016,6344.143574267076,5.8310072972295,4537760.173113147,288.4091314603454,3139.915066531464,46.3653357590289,2.0584301438661345,0.002944748693669618
2.5420000000000016,6330.664960928583,5.858009364970069,4533316.4675078355,288.36706504639534,3140.1602557073056,46.23874417275863,2.060737112958162,0.0029883587184196237
2.5820000000000016,6314.699780674628,5.885290228630049,4528867.669965702,288.32491926352986,3140.2614373064725,46.11223520671344,2.063039177530171,0.003031867877304137
2.6220000000000017,6298.911248031277,5.912484738253886,4524413.604236661,288.28269228340264,3140.3596922785314,45.985804614717125,2.0653364094480073,0.003075277859103353
2.6620000000000017,6283.340325987074,5.939743472156596,4519954.254158049,288.24038379149846,3140.4570986852286,45.85945253359608,2.067628792772152,0.003118589195240863
2.7020000000000017,6267.918139040405,5.9670785052809485,4515489.607118509,288.1979935059475,3140.554668869138,45.733179202122194,2.0699163096147437,0.0031618023849956794
2.7420000000000018,6252.648335547645,5.99448132867269,4511019.644291493,288.1555210848115,3140.652383789703,45.6069846958695,2.0721989454211065,0.00320491796475802
2.782000000000002,6237.526642131825,6.021955609934386,4506544.348981852,288.1129662052528,3140.750252847007,45.48086915410789,2.074476684440952,0.003247936448841417
2.822000000000002,6222.551272022647,6.049500871570745,4502063.703595646,288.0703285347577,3140.84827229333,45.35483269756148,2.0767495113647874,0.003290858351016332
2.862000000000002,6207.719811649303,6.077117826682372,4497577.690524501,288.02760773952235,3140.9464424890216,45.228875452395485,2.079017410844281,0.0033336841783393615
2.902000000000002,6193.030063078832,6.104806870654292,4493086.291906014,287.9848034821611,3141.044762649753,45.10299754375277,2.0812803676183735,0.003376414432909623
2.942000000000002,6178.4798246079445,6.132568483151913,4488589.48968544,287.94191542227907,3141.143232296858,44.977199097440526,2.0835383664775415,0.003419049611505144
2.982000000000002,6168.3510520484415,6.160403124402358,4484087.26559935,287.8989432163019,3140.9674937436325,44.85148023951122,2.085791392269866,0.0034615902057643804
3.022000000000002,6159.765839734065,6.188451310959256,4479579.601179018,287.8558865174936,3140.680411931954,44.72584109637501,2.0880394298965976,0.0035040367022287533
3.062000000000002,6151.182734524559,6.216477293663371,4475066.375367614,287.8127439968795,3140.393158585959,44.60027906356262,2.09028251789749,0.003546390283251714
3.102000000000002,6142.6174517496065,6.244567842019305,4470547.564910382,287.7695152572477,3140.1054610783385,44.47479416645809,2.092520643007911,0.003588651447974872
3.142000000000002,6134.059268198449,6.272741460156003,4466023.155180925,287.7261999826426,3139.81705512702,44.349386666545186,2.0947537873848527,0.0036308206302278893
3.182000000000002,6125.511117892305,6.300989153574309,4461493.12471137,287.68279779039864,3139.5280348458678,44.22405664885404,2.096981936697299,0.0036728983044358797
3.222000000000002,6116.972099673163,6.329314088770474,4456957.453829667,287.63930831373153,3139.238367875073,44.09880425233713,2.0992050756053913,0.0037148849265813155
3.2620000000000022,6108.4421622111,6.357716151806411,4452416.122181516,287.59573117800795,3138.9480532783914,43.97362960390423,2.1014231890506667,0.0037567809511695966
3.3020000000000023,6099.921028766022,6.386195939227126,4447869.109284206,287.55206600603304,3138.6555513634125,43.84853283318135,2.103636261965326,0.0037985868275151914
3.3420000000000023,6091.407556900743,6.414754770301288,4443316.39442221,287.50831241703344,3138.3608526725634,43.723514069768896,2.105844279323814,0.0038403030005035826
3.3820000000000023,6083.202557109359,6.443392290562265,4438757.956057415,287.46447002096596,3138.0559560079496,43.59857342777313,2.108047226440327,0.0038819299145694862
3.4220000000000024,6083.736159233066,6.472112374879434,4434193.772593629,287.4205384258398,3137.477522773808,43.47371102604796,2.110245088573013,0.003923468008604491
3.4620000000000024,6084.440713623821,6.501022640733598,4429623.819938889,287.37651721421497,3136.894195347905,43.34892692433221,2.1124378521551814,0.00396491773215239
3.5020000000000024,6085.417554155271,6.529893108720873,4425047.996546375,287.3324052201962,3136.3120873818834,43.22421916378201,2.1146255425327682,0.004006280039425109
3.5420000000000025,6086.677855402072,6.558880634258002,4420466.3068284225,287.2882022967324,3135.7279962692937,43.099588572768766,2.1168081312052327,0.0040475551754813035
3.5820000000000025,6088.227002739238,6.587942852512173,4415878.722683547,287.2439079820679,3135.1427277493776,42.97503513383007,2.118985606031799,0.004088743595034472
3.6220000000000026,6090.076990051936,6.617088183330858,4411285.222214929,287.19952187278665,3134.5561290774313,42.85055899831692,2.121157951643883,0.004129845706180464
3.6620000000000026,6092.238507214433,6.6463162601392725,4406685.782472173,287.1550435538185,3133.968203087484,42.72616029649156,2.1233251531043886,0.004170861918370196
3.7020000000000026,6094.72311269859,6.675627560224361,4402080.380280347,287.1104726064169,3133.3789401136905,42.60183915924611,2.1254871954875716,0.004211792636985653
3.7420000000000027,6097.542893317863,6.705022644118222,4397468.992259876,287.0658086083335,3132.788328241183,42.4775957186571,2.1276440638667458,0.004252638263253216
3.7820000000000027,6100.71052619476,6.734502013778359,4392851.594784463,287.0210511333921,3132.1963567659172,42.35343010693594,2.1297957433326484,0.00429339919455755
3.8220000000000027,6092.920390159825,6.764066189905234,4388228.163991978,286.9761997515754,3131.463612215961,42.229342456756605,2.131942218985452,0.004334075824409204
3.8620000000000028,6079.441701151265,6.793757661319364,4383598.675780647,286.9312540289685,3130.656747002559,42.10533290120242,2.1340834759340797,0.004374668542506844
