time,thrust,OF,ox_tank.pressure,ox_tank.temperature,combustion_chamber.temperature,propellant_mass,propellant_CG,combustion_chamber.fuel_grain.geometry.length_regressed
0.007,235.6706928835182,7.2522779034856075,3929521.628874762,282.3390850756984,2818.8496879232125,50.23043721868869,2.0223525848588797,8.9614331174502e-06
0.014,845.2094848843974,6.8064626674232604,3928598.6373097203,282.32935702145977,2974.9209273968204,50.19748056726526,2.0230135749402907,1.7881284553795552e-05
0.021,1915.0236902143506,6.6524046163115464,3927736.4998674607,282.32026881751835,3029.300339271318,50.16663066189089,2.02362868088755,2.640017075272419e-05
0.028,2764.1804089305697,6.527144517090946,3926931.860773693,282.3117853940459,3059.8507440560097,50.137773287906626,2.0242005768885756,3.453200646551171e-05
0.035,3436.341479782224,6.424230540357546,3926178.342260706,282.3038397710485,3079.39924723377,50.110689907008975,2.0247341606417417,4.231208439404609e-05
0.042,3961.2399044308363,6.342807409991972,3925468.877403567,282.2963576448787,3092.14687368489,50.08513767159248,2.0252348035481025,4.978257232533905e-05
0.049,4330.118516150155,6.280986253288464,3924796.36261813,282.2892642723439,3101.045775990865,50.060871853316506,2.0257078655959955,5.6988229405615405e-05
0.056,4628.174910480007,6.235851196960745,3924154.08860645,282.28248902239415,3107.3567375528164,50.03766078070292,2.0261583801745138,6.397319523996416e-05
0.063,4854.017685556062,6.204083609828156,3923536.031493055,282.27596845495685,3111.876856596911,50.01529603847857,2.0265908454402237,7.077849717934075e-05
0.07,5024.044539763378,6.182503424768457,3922937.006070888,282.26964794566027,3115.1374275909902,49.99359793113806,2.0270091186287766,7.744044123825312e-05
0.07700000000000001,5151.352162675337,6.168393130706909,3922352.701951999,282.26348207477344,3117.48798012575,49.97241688167426,2.0274163963188063,8.39898741242952e-05
0.08400000000000002,5246.2425901823735,6.15961278600808,3921779.6365028135,282.25743413718476,3119.1899880515366,49.95163191314724,2.0278152547647568,9.045214548996568e-05
0.09100000000000003,5316.709683196557,6.154575844900921,3921215.059472291,282.251475141471,3120.423068471653,49.93114741685072,2.028207724318671,9.68475361120522e-05
0.09800000000000003,5368.884415231319,6.152149848599346,3920656.837510134,282.2455825955651,3121.3127606374624,49.910889190196514,2.028595377310921,0.00010319193299227568
0.10500000000000004,5407.423717412831,6.151544308096974,3920103.3384800376,282.23973928918866,3121.9480301870826,49.89080044419876,2.0289794150363205,0.00010949757999554718
0.11200000000000004,5435.8373455821375,6.152213247129365,3919553.3267568215,282.2339321913096,3122.40480170425,49.87083817769159,2.0293607459226513,0.00011577379661426654
0.11900000000000005,5456.753954516567,6.153779145590783,3919005.8742601722,282.2281515129759,3122.729897711253,49.85097008986922,2.029740051639408,0.00012202761026093101
0.12600000000000006,5472.132430615027,6.155981243040229,3918460.288089414,282.22238994482456,3122.957988029899,49.83117206543193,2.030117840695031,0.00012826428238244865
0.13300000000000006,5483.42688424124,6.158637712072061,3917916.0531960386,282.21664205290955,3123.1146829844515,49.81142618051741,2.0304944907936955,0.0001344877317641714
0.14000000000000007,5491.713612163224,6.161620723650174,3917372.787974108,282.2109038105887,3123.2188672029347,49.79171915707397,2.0308702815881565,0.00014070086597387521
0.14700000000000008,5497.787532748093,6.164839676212974,3916830.210360985,282.2051722411423,3123.2844483652925,49.77204118262621,2.0312454196458303,0.00014690583625905516
0.15400000000000008,5502.234796231,6.168229876218262,3916288.1122343014,282.1994451478172,3123.3216597073406,49.75238501872226,2.0316200572836394,0.0001531042310692067
0.1610000000000001,5505.487095884028,6.171744835201313,3915746.340223154,282.1937209114759,3123.3380260646964,49.732745332696894,2.0319943066712245,0.00015929722162256292
0.1680000000000001,5507.862085458647,6.175350971840196,3915204.78140682,282.18799833976755,3123.3387420862277,49.71311819965161,2.0323682503337834,0.00016548567066614693
0.1750000000000001,5509.593353638673,6.179023953867323,3914663.352699428,282.18227655515983,3123.328254836254,49.69350073282379,2.032741948942712,0.00017167021333932078
0.1820000000000001,5510.852610057133,6.182746025237824,3914121.9929915024,282.1765549120406,3123.3097002679924,49.67389080998884,2.033115447079503,0.0001778513171005684
0.22200000000000011,5511.766039659477,6.186504239980503,3913580.6573517136,282.1708329355461,3123.28521915345,49.65428687162312,2.033488777486261,0.00018402932597210364
0.2620000000000001,5506.846633303362,6.195312984268473,3910481.9473953564,282.13806791691775,3123.112937378746,49.54230272268365,2.0356206767079175,0.0002192895583274838
0.3020000000000001,5507.306436038707,6.215443364956214,3907379.443090257,282.1052434543897,3122.9076973641554,49.430356049357265,2.037750406787237,0.0002544835865505826
0.3420000000000001,5507.087901451628,6.238951454968706,3904274.274474117,282.07237141780763,3122.6538614259066,49.31848617034759,2.0398771344753173,0.000289603197072996
0.38200000000000006,5507.126854835177,6.260486374623517,3901165.513527087,282.039441898604,3122.4234761483162,49.206661441673724,2.042001513969484,0.0003246556721400176
0.42200000000000004,5507.244020295637,6.28284037739321,3898053.535490333,282.0064587817165,3122.183767255012,49.094895136051285,2.044123258364275,0.000359638485748641
0.462,5507.483767891043,6.304927489272267,3894938.191756008,281.97342040412235,3121.947095480081,48.98318250081037,2.0462424582457013,0.0003945530377636995
0.502,5507.838304169681,6.327141077970286,3891819.5248734285,281.94032712780535,3121.709030629949,48.87152535590978,2.0483590667453986,0.00042939929413540084
0.542,5508.312585188037,6.34934255855456,3888697.509634837,281.9071785958923,3121.4711235894115,48.759923199549775,2.0504730855954074,0.0004641777220989636
0.5820000000000001,5508.908812619266,6.371580444340161,3885572.144332242,281.8739747003128,3121.232832422647,48.648376338462405,2.052584499698002,0.0004988886101913665
0.6220000000000001,5509.629743076743,6.393838210811051,3882443.41901396,281.84071524499564,3120.9943398633113,48.53688480067485,2.054693299831962,0.0005335323041289204
0.6620000000000001,5510.478230553175,6.416121744787269,3879311.3264263477,281.8074000620239,3120.7555798144576,48.42544870972045,2.0567994748422413,0.0005681091258015398
0.7020000000000002,5511.457155211869,6.438429269149967,3876175.858271828,281.7740289718799,3120.5165709885587,48.31406815686267,2.0589030143033273,0.0006026194009471648
0.7420000000000002,5507.488542700604,6.460761606662971,3873037.006478826,281.7406017969377,3120.102455384306,48.202743244402825,2.061003907615903,0.0006370634498411513
0.7820000000000003,5502.360366535873,6.483201080396291,3869894.762773902,281.7071183569072,3119.6473595984758,48.091474071120324,2.0631021443089788,0.0006714415904759262
0.8220000000000003,5497.250552109305,6.505592633675133,3866749.078768754,281.6735780431309,3119.193288942811,47.98025938319615,2.0651977420139964,0.0007057544274149926
0.8620000000000003,5492.14357592141,6.528026714404182,3863599.9548706585,281.63998076613973,3118.7384928455635,47.86909958526239,2.067290683959689,0.0007400022060043418
0.9020000000000004,5487.043406774282,6.550482052820342,3860447.380130325,281.60632631488903,3118.283387981131,47.757994700771754,2.0693809613386596,0.0007741852504332045
0.9420000000000004,5481.948853983785,6.572964410533858,3857291.3463828834,281.5726145074848,3117.827859310203,47.646944850710824,2.071468563371511,0.0008083038611295255
0.9820000000000004,5476.860157481072,6.59547240963805,3854131.8445819058,281.5388451520766,3117.3719333557365,47.53595012970679,2.073553479874871,0.0008423583413200781
1.0220000000000005,5471.777154251782,6.6180066501656265,3850968.8658049526,281.5050180575833,3116.915597303782,47.42501063997038,2.075635700557289,0.0008763489898111643
1.0620000000000005,5466.699796678974,6.640567171651375,3847802.400970116,281.47113303066004,3116.4588495044986,47.314126481755366,2.077715215215837,0.0009102761030607465
1.1020000000000005,5461.6280056401965,6.663154172390181,3844632.44091626,281.4371898765497,3116.0016851601617,47.20329775606942,2.079792013679165,0.0009441399746358245
1.1420000000000006,5456.561711911676,6.685767804992204,3841458.9763800194,281.40318839883076,3115.544100388118,47.09252456391259,2.081866085822377,0.000977940895409109
1.1820000000000006,5451.5008445817575,6.708408234246448,3838281.998001993,281.36912839947746,3115.086091072838,46.98180700649698,2.083937421561652,0.0010116791535463828
1.2220000000000006,5446.445680004612,6.731075620898993,3835101.496324718,281.335009678832,3114.6256815601955,46.87114518519125,2.0860060108545415,0.0010453550345517618
1.2620000000000007,5439.51942781846,6.753770512472401,3831917.4617929356,281.30083203560116,3114.099827165356,46.760539201541555,2.088071843698737,0.001078968821296238
1.3020000000000007,5429.90735853485,6.7765136390806004,3828729.8845704733,281.2665952648823,3113.4805466127877,46.64998915120846,2.090134910255666,0.0011125207953260844
1.3420000000000007,5420.310952619776,6.799291676389319,3825538.7448939346,281.23229905444737,3112.8602521664106,46.539494804474536,2.0921952074001466,0.001146011304030766
1.3820000000000008,5410.761503680631,6.822072927398268,3822344.0227613184,281.1979430886322,3112.240112008035,46.42905592926808,2.094252732072343,0.0011794406924029303
1.4220000000000008,5401.242533867888,6.8448920578519,3819145.7129876567,281.1635272103826,3111.619153960756,46.31867278839742,2.0963074710993594,0.001212809198858954
1.4620000000000009,5391.759055198841,6.867736125129268,3815943.80400227,281.1290511933773,3110.997727016553,46.20834543660904,2.098359415614319,0.001246117103116849
1.502000000000001,5382.309267992464,6.890609208150491,3812738.2860925607,281.09451483065783,3110.3757220285265,46.09807399361461,2.100408555458393,0.0012793646688567604
1.542000000000001,5372.893237589499,6.913510425317469,3809529.1489147767,281.0599179078435,3109.7531614170434,45.9878585617839,2.102454880866077,0.00131255216102408
1.582000000000001,5363.510569395302,6.936440186193937,3806316.3821561923,281.025260210252,3109.130033712879,45.87769924802711,2.104498382016585,0.0013456798412717274
1.622000000000001,5354.160978019423,6.959398590214092,3803099.975373128,280.9905415211484,3108.506335531529,45.76759615847004,2.1065390491420226,0.0013787479691033042
1.662000000000001,5344.844158055259,6.982385805324087,3799879.9180271765,280.9557616221285,3107.8820617298084,45.65754939966318,2.108576872501979,0.0014117568016483327
1.702000000000001,5335.5598112274,7.005401984837314,3796656.19947717,280.9209202930254,3107.257207549133,45.547559078333904,2.1106118423878817,0.0014447065937416106
1.742000000000001,5326.307641113062,7.028447284294365,3793428.8089802507,280.8860173119143,3106.631768184855,45.437625301439226,2.11264394912124,0.0014775975979393742
1.7820000000000011,5317.71307144632,7.051521858381346,3790197.735691231,280.8510524550983,3105.9803741410224,45.3277481761622,2.114673183053034,0.001510430064546827
1.8220000000000012,5311.3576830423735,7.0746321655381275,3786962.9686622494,280.8160254970976,3105.2376532516287,45.217927809917484,2.1166995345629327,0.0015432042416433376
1.8620000000000012,5304.987673878833,7.0977883791975405,3783724.4939498655,280.7809361792877,3104.4935255696937,45.10816421650307,2.118722995959995,0.001575920394490516
1.9020000000000012,5298.625817508685,7.120953066569564,3780482.2910083146,280.7457841706756,3103.7494036171765,44.99845720003629,2.1207435638222023,0.00160857882936885
1.9420000000000013,5292.263441899069,7.14415587797545,3777236.352076905,280.71056927806677,3103.004326124775,44.88880698371982,2.1227612262610953,0.0016411797637996346
1.9820000000000013,5285.902820854146,7.167386872924887,3773986.6643954604,280.67529125337467,3102.258604925975,44.77921363221147,2.124775974630614,0.0016737234459723708
2.022000000000001,5279.543351569641,7.190648842021665,3770733.21644258,280.63994986123043,3101.5121533058023,44.66967725403653,2.1267877994260114,0.001706210112966547
2.062000000000001,5273.185053636879,7.213941375375183,3767475.9962868807,280.60454486109467,3100.7649830454166,44.560197948188566,2.1287966913641085,0.0017386400017919469
2.102000000000001,5266.827838642289,7.237264726250053,3764214.991944411,280.56907601112795,3100.0170858750603,44.4507758157152,2.130802641148384,0.0017710133470250006
2.1420000000000012,5260.471631549461,7.260619038570038,3760950.191315331,280.5335430674956,3099.2684567608044,44.34141095769279,2.132805639509277,0.001803330381249147
2.1820000000000013,5254.1163570219705,7.284004466853167,3757681.5821908843,280.4979457844357,3098.5173044394296,44.23210347547434,2.1348056771986075,0.001835591335026957
2.2220000000000013,5247.762828765348,7.307420023161734,3754409.1522529535,280.46228391424603,3097.7644024337,44.12285347069624,2.1368027449888447,0.0018677964369215449
2.2620000000000013,5241.410913665188,7.330866690785365,3751132.8895867947,280.4265572128695,3097.010778832133,44.013661061668365,2.138796833343684,0.0018999459101769116
2.3020000000000014,5235.044214895724,7.354345078157908,3747852.7821345516,280.3907654339389,3096.234877801993,43.9045263658455,2.1407879327704573,0.001932039976331018
2.3420000000000014,5228.632784326071,7.377852298109521,3744568.8175002467,280.3549083266378,3095.3935411206025,43.795449493654296,2.142776033943063,0.001964078856491512
2.3820000000000014,5222.227529553847,7.401386316601716,3741280.9843824957,280.31898565134327,3094.551634882276,43.686430594082935,2.144761126788748,0.001996062762085977
2.4220000000000015,5215.821262225389,7.424959101566871,3737989.273139292,280.2829971858373,3093.7086639293093,43.57746987229415,2.1467432001394604,0.002027991891357829
2.4620000000000015,5209.416506942625,7.448561304525017,3734693.6699250294,280.246942661199,3092.8649626265374,43.46856740358015,2.148722245450974,0.0020598664671602615
2.5020000000000016,5203.012544430381,7.472196169696713,3731394.162282411,280.2108218228869,3092.0204180242868,43.359723311192774,2.15069825324286,0.002091686700817462
2.5420000000000016,5196.609424696177,7.495863121303247,3728090.737265925,280.17463441022073,3091.1750491819885,43.25093770676521,2.1526712142897058,0.0021234528042494137
2.5820000000000016,5190.207064053501,7.5195624300879045,3724783.3818872147,280.1383801612435,3090.328846544453,43.14221070446623,2.1546411193377164,0.0021551649871187823
2.6220000000000017,5183.8053922442,7.543294231534527,3721472.083036412,280.1020588118518,3089.481804998872,43.03354241853091,2.156607959153522,0.002186823457351299
2.6620000000000017,5177.404341131155,7.567058670055472,3718156.8274890836,280.0656700958633,3088.6339191961606,42.92493296350731,2.1585717245187577,0.0022184284211050585
2.7020000000000017,5171.003841647528,7.590855892958825,3714837.6019065543,280.0292137450115,3087.7851836866703,42.81638245429256,2.160532406228863,0.00224998008278231
2.7420000000000018,5164.603825512637,7.614686045501287,3711514.3928344487,279.99268948892075,3086.935593103244,42.70789100611347,2.162489995092988,0.002281478645052153
2.782000000000002,5158.204224723134,7.6385492730813365,3708187.186702235,279.9560970550924,3086.08514208434,42.59945873453892,2.1644444819332684,0.002312924308866584
2.822000000000002,5151.7826325014385,7.662445720657719,3704855.9698224524,279.91943616888716,3085.2015938553736,42.49108575548287,2.16639585758431,0.002344317273478143
2.862000000000002,5145.345233714465,7.686367093570198,3701520.728390001,279.88270655350806,3084.285233807313,42.38277218520946,2.1683441128926155,0.002375657736456927
2.902000000000002,5138.911922931956,7.710322380538124,3698181.4521568934,279.84590797050026,3083.3679987937376,42.274518254534286,2.1702892364624145,0.00240694587086582
2.942000000000002,5132.476943795164,7.734317252417872,3694838.1293432624,279.80904016374075,3082.4496003719005,42.16632415002773,2.172231217797689,0.0024381818571388705
2.982000000000002,5126.04247523625,7.758343672569565,3691490.744703822,279.7721028380341,3081.5303470161493,42.0581899545527,2.174170048468053,0.0024693658949108115
3.022000000000002,5119.607906289148,7.782404558570477,3688139.2841935977,279.7350957105161,3080.6101303853125,41.950115792403324,2.1761057192422997,0.0025004981739811154
3.062000000000002,5113.173258467365,7.8064994399844005,3684783.733324881,279.698018492532,3079.688967143346,41.8421017782834,2.178038221094886,0.0025315788845374863
3.102000000000002,5106.7384619073655,7.8306285454911135,3681424.0775389373,279.66087089372627,3078.7668488327117,41.73414802887188,2.1799675449774374,0.002562608214860776
3.142000000000002,5100.30345916459,7.8547920179048605,3678060.302151114,279.6236526214269,3077.842507355545,41.62625466115125,2.1818936818512817,0.0025935863516753
3.182000000000002,5093.867845427359,7.878990473148729,3674692.392350879,279.58636338063576,3076.9155166751893,41.51842179243991,2.183816622686393,0.0026245134801585
3.222000000000002,5087.431688324463,7.903223535581243,3671320.3329983735,279.54900287176383,3075.9875577004614,41.41064953419136,2.1857363585823,0.002655389785185862
3.2620000000000022,5080.995391276116,7.927490827972152,3667944.1089144154,279.51157079382926,3075.0586505728584,41.30293800094964,2.187652880592011,0.0026862154495665524
3.3020000000000023,5074.558712794283,7.951793174514988,3664563.7050729436,279.47406684658637,3074.128763807467,41.19528731623392,2.189566179607034,0.002716990652898355
3.3420000000000023,5068.09002314728,7.976130493256012,3661179.106214532,279.4364907262334,3073.1511246032746,41.0876976007174,2.1914762465884317,0.002747715573927795
3.3820000000000023,5061.639924950048,8.000474644200551,3657790.2969757444,279.3988421268355,3072.172366452029,40.9801689762223,2.1933830724882717,0.002778390389773277
3.4220000000000024,5055.18259293705,8.024882374858475,3654397.2739046235,279.36112087394076,3071.191456670317,40.87270193065637,2.1952866411499494,0.0028090152040099662
3.4620000000000024,5048.725974800589,8.049317315937008,3651000.017364455,279.3233266123534,3070.2098289732403,40.76529646302757,2.1971869459618696,0.0028395902154261295
3.5020000000000024,5042.268513231014,8.073789263731232,3647598.5123858103,279.2854590377272,3069.2271079945917,40.65795271883897,2.1990839774706306,0.0028701155925293887
3.5420000000000025,5035.8102660265495,8.098296779889637,3644192.742973339,279.24751783329236,3068.2433465632416,40.5506708168464,2.2009777267554527,0.002900591507757663
3.5820000000000025,5029.351205552368,8.122840065461137,3640782.6930699875,279.20950268056293,3067.258537618331,40.443450878411,2.202868184856424,0.002931018131703067
3.6220000000000026,5022.891251179843,8.14741931874824,3637368.346505893,279.1714132587578,3066.272673297896,40.33629302597634,2.2047553428038578,0.002961395633426837
3.6620000000000026,5016.430345870216,8.172034652925655,3633949.686965002,279.13324924441747,3065.285749184024,40.22919738209531,2.206639191636828,0.0029917241806643948
3.7020000000000026,5009.968427296101,8.196686211147172,3630526.697998158,279.0950103115383,3064.297759707934,40.12216406986258,2.208519722394464,0.0030220039397540147
3.7420000000000027,5003.50543406236,8.221374129901857,3627099.36301874,279.0566961315122,3063.308699561681,40.01519321281951,2.2103969261174696,0.003052235075668969
3.7820000000000027,4997.041305011411,8.246098545969605,3623667.6653020224,279.01830637310746,3062.318563438524,39.908284934972514,2.212270793847453,0.003082417752027209
3.8220000000000027,4990.559586545447,8.270859595886135,3620231.5879841065,278.97984070244524,3061.3037348338157,39.80143936079905,2.214141316626508,0.0031125521311033207
3.8620000000000028,4984.08421429436,8.295633611345451,3616791.114060788,278.9412987829744,3060.276715828828,39.69465661525206,2.2160084854968223,0.003142638373840614
