time,thrust,OF,ox_tank.pressure,ox_tank.temperature,combustion_chamber.temperature,propellant_mass,propellant_CG,combustion_chamber.fuel_grain.geometry.length_regressed
0.007,233.93685506792625,7.070445675851905,4037817.6028176206,283.4688830858248,2988.0237712732714,55.75342173990323,1.8899914989242612,9.301550411194252e-06
0.014,911.3394409844958,6.629453783288749,4036988.700412482,283.4603216846054,3157.459066905533,55.72092897399648,1.8906645644590752,1.85577047112944e-05
0.021,2034.4358102107497,6.501296141996851,4036215.435070038,283.45233375607563,3215.1070688955033,55.6905604376395,1.891290485113823,2.734953478140627e-05
0.028,2936.4427665627695,6.400611647840938,4035495.305823962,283.4448937052607,3247.083546796116,55.66222255975886,1.8918715179423444,3.569024730524122e-05
0.035,3653.9616245508273,6.319649872997605,4034822.8410186036,283.4379452092691,3267.0707975530618,55.63570863971344,1.8924123894153686,4.361896853017669e-05
0.042,4176.4965406678,6.257682132212053,4034191.7988399826,283.4314239438417,3280.574546667722,55.61078214005928,1.892918436638013,5.1183341909764946e-05
0.049,4599.896589470992,6.213012191544191,4033595.7665332104,283.4252637770587,3289.984506683762,55.58719939097046,1.8933951042251262,5.843465247537231e-05
0.056,4924.329668631465,6.182890007571711,4033028.578602968,283.41940109585744,3296.6431150435133,55.56472555880767,1.893847597986676,6.542406672885526e-05
0.063,5170.908843339092,6.164091401403502,4032484.615973232,283.41377790389055,3301.412232091432,55.54314617929955,1.8942806412529247,7.219963092709055e-05
0.07,5356.992670387103,6.153502191671244,4031958.9825341473,283.40834365259997,3304.832019607542,55.5222740571161,1.8946983347528747,7.880422708021164e-05
0.07700000000000001,5496.574983429574,6.148504236203887,4031447.56982868,283.40305591578846,3307.3003926750303,55.50195189044182,1.8951041094219474,8.52745307316246e-05
0.08400000000000002,5600.746717363986,6.147118859850704,4030947.0356432875,283.39788017347615,3309.076123466326,55.482051574030066,1.8955007496960665,9.164082447721942e-05
0.09100000000000003,5677.635671171241,6.147971581038711,4030454.728139617,283.3927890318404,3310.3584166695446,55.462471380205116,1.8958904606318165,9.792741193566474e-05
0.09800000000000003,5733.879258443631,6.150163495092404,4029968.5840451857,283.3877611740191,3311.2807415189786,55.44313211222896,1.8962749552379383,0.00010415336692514508
0.10500000000000004,5774.829865825142,6.153136395083279,4029487.0222652648,283.3827802627221,3311.9476861151115,55.42397305671466,1.8966555445600066,0.0001103334003827079
0.11200000000000004,5804.851273516186,6.156555223138084,4029008.845142589,283.3778339212064,3312.4199301418985,55.40494821251788,1.8970332206785738,0.00011647870860477671
0.11900000000000005,5826.869829741616,6.160225866953878,4028533.1534101907,283.3729128552757,3312.751471746471,55.386023034882875,1.8974087278650478,0.00012259772733152872
0.12600000000000006,5842.768542062159,6.164037198262215,4028059.2762076566,283.3680101306134,3312.9835990869697,55.36717175214862,1.8977826209460995,0.00012869676516801633
0.13300000000000006,5854.165650923211,6.167926665065003,4027586.7154932264,283.3631205986623,3313.14275058051,55.3483752322754,1.8981553115563683,0.00013478051368623293
0.14000000000000007,5862.255470062789,6.171859645054348,4027115.102857835,283.35824045052345,3313.2483665383,55.329619324283655,1.898527104010654,0.0001408524474975988
0.14700000000000008,5867.9175772515555,6.175817030130105,4026644.166497467,283.35336687574215,3313.3147252061212,55.31089358931441,1.898898222702272,0.00014691513224021722
0.15400000000000008,5871.798755244829,6.179788314569483,4026173.706264817,283.34849780453135,3313.352304774879,55.292190341881266,1.8992688327778868,0.0001529704582894864
0.1610000000000001,5874.374070243856,6.183767727706089,4025703.574982942,283.34363171467515,3313.3687903339282,55.27350393168692,1.8996390556102978,0.0001590198163602032
0.1680000000000001,5875.992178221261,6.187752093244069,4025233.6645344975,283.3387674877662,3313.369816195625,55.25483020897741,1.9000089803089284,0.00016506422850942636
0.1750000000000001,5876.908812705221,6.1917396534636975,4024763.895552187,283.33390430264967,3313.359512050604,55.23616612832004,1.9003786722455944,0.00017110444536336974
0.1820000000000001,5877.311473037563,6.195729426674688,4024294.209802624,283.3290415566981,3313.3409042406256,55.217509455925224,1.9007481793496404,0.00017714101800663933
0.22200000000000011,5877.337591173234,6.199720857067489,4023824.5645731213,283.3241788077842,3313.316210299971,55.19885855396551,1.9011175367454385,0.00018317435099260315
0.2620000000000001,5871.030057369179,6.208775511637479,4021137.1453503845,283.2963448984513,3313.1574054131884,55.0923185898668,1.9032269935611397,0.00021760820307520194
0.3020000000000001,5866.18254765444,6.230351319817215,4018447.050305894,283.26846940375253,3312.943205199338,54.98581441396824,1.9053348286960652,0.00025197400421114605
0.3420000000000001,5860.045205337138,6.25444335784864,4015754.87375044,283.24055842987195,3312.6921161417768,54.879368858952255,1.907440543981901,0.0002862665531229622
0.38200000000000006,5854.453691769505,6.276847630829935,4013059.972597603,283.21260525689934,3312.4602919399763,54.77295760625672,1.9095446514553163,0.0003204921749827616
0.42200000000000004,5848.678262302125,6.299965407564448,4010362.614422555,283.18461260447276,3312.220790933841,54.66659103717478,1.9116469198956922,0.0003546487077896926
0.462,5842.974816104963,6.322867486605886,4007662.6986473044,283.15657937414056,3311.983618388755,54.560265523800744,1.913747418115441,0.0003887374061910708
0.502,5837.257682609477,6.345877791335659,4004960.2546231193,283.12850581527476,3311.7453409252125,54.453982379677214,1.9158461092476917,0.00042275831697678127
0.542,5831.554659570015,6.3688884729385205,4002255.2680255543,283.10039172364935,3311.507090911308,54.347741262610576,1.9179429919103081,0.00045671188648737445
0.5820000000000001,5825.856692344028,6.3919349521977455,3999547.7387237535,283.07223704221434,3311.26849740036,54.24154237102282,1.9200380532327896,0.0004905984263987795
0.6220000000000001,5820.166515047613,6.415006092728908,3996837.6619358324,283.0440416653588,3311.029675326063,54.13538572962143,1.9221312841238285,0.0005244182872430782
0.6620000000000001,5814.4831399371205,6.438105665693857,3994125.0342706433,283.0158055016938,3310.790584762374,54.02927141812489,1.9242226743839648,0.0005581718029954642
0.7020000000000002,5814.499577272109,6.461232727072414,3991409.85181567,282.9875284541693,3310.3580123736187,53.923199498959335,1.9263122142482894,0.000591859308618717
0.7420000000000002,5815.918519049822,6.484481656999582,3988692.110735468,282.9592104262967,3309.877768066445,53.81717003985386,1.9283998939032434,0.0006254811346442571
0.7820000000000003,5817.489713588041,6.507670421509712,3985971.767645706,282.93085090894505,3309.3988118424736,53.71118162669399,1.9304857351336604,0.0006590379638323672
0.8220000000000003,5820.399073661276,6.530906904829282,3983248.826856189,282.90244988949195,3308.9178791264803,53.60523464297013,1.9325697214813502,0.0006925300432297404
0.8620000000000003,5824.425545389205,6.554168983682604,3980523.282375455,282.87400724771504,3308.4353050759837,53.49932908733348,1.934651844744829,0.0007259577093459258
0.9020000000000004,5828.1739123624475,6.577460882503756,3977795.1299909754,282.84552288167805,3307.952251163597,53.393465027670594,1.9367320953084062,0.0007593212790882326
0.9420000000000004,5831.607732872506,6.600781172546682,3975064.3650883483,282.81699668498993,3307.46875372897,53.287642519234026,1.9388104638836798,0.0007926210694397015
0.9820000000000004,5834.691117846571,6.624131185370606,3972330.983411718,282.7884285547427,3306.9847836631534,53.181861633075385,1.9408869409045084,0.0008258573907085581
1.0220000000000005,5837.388618850593,6.64751067711655,3969594.980472583,282.7598183853363,3306.500345216592,53.07612243392555,1.9429615169961314,0.0008590305518490345
1.0620000000000005,5839.665768641142,6.67091995537166,3966856.351770642,282.7311660707822,3306.015431339468,52.970424988447995,1.9450341827989486,0.0008921408585284692
1.1020000000000005,5841.4892196351275,6.694359165367273,3964115.092727123,282.7024715040041,3305.5300382675105,52.86476936274806,1.9471049290204918,0.0009251886137564362
1.1420000000000006,5842.827021801933,6.717828494932184,3961371.1987029314,282.6737345770248,3305.0441613982143,52.75915562304806,1.9491737464202135,0.0009581741177592383
1.1820000000000006,5843.648859928743,6.741328121186488,3958624.6649942575,282.6449551809172,3304.557796350707,52.65358383552416,1.95124062581207,0.000991097668053209
1.2220000000000006,5835.477270218351,6.764858223355275,3955875.486833741,282.6161332058137,3303.919336166001,52.548054066347596,1.9533055580627754,0.00102395955946893
1.2620000000000007,5825.962910774815,6.7884717330729,3953123.6593903145,282.58726854090173,3303.2551091465416,52.442566381679725,1.9553685340910707,0.0010567600841858557
1.3020000000000007,5816.50627335888,6.812063432472918,3950369.15632531,282.55836084931514,3302.591692788004,52.337120056442586,1.9574295615730017,0.001089499717700338
1.3420000000000007,5807.083154910236,6.835699927037034,3947611.9784216904,282.5294100782935,3301.9272605972988,52.231715371469804,1.9594886269672223,0.0011221786957629307
1.3820000000000008,5797.698683033135,6.859364839083842,3944852.11933713,282.50041610004104,3301.262253061084,52.12635234660214,1.961545722296513,0.00115479731302968
1.4220000000000008,5788.351504556276,6.883061793685604,3942089.574199668,282.47137880190405,3300.5965734560987,52.02103105830963,1.9636008384360546,0.0011873558483253572
1.4620000000000009,5779.0414378735095,6.906790402341591,3939324.337804446,282.44229806744084,3299.9302307654934,51.91575157313495,1.965653966518144,0.0012198545803213151
1.502000000000001,5769.768158896486,6.930550896015726,3936556.404914094,282.4131737795727,3299.2632182367743,51.81051395877098,1.96770509769759,0.0012522937849645205
1.542000000000001,5760.531345452552,6.954343460223904,3933785.7702290337,282.384005820269,3298.595530091591,51.70531828296731,1.9697542231740353,0.001284673735764045
1.582000000000001,5751.330686428352,6.978168266153051,3931012.4283838915,282.3547940705068,3297.9271610084547,51.60016461340236,1.9718013341938727,0.0013169947038502157
1.622000000000001,5742.165870377793,7.002025493102687,3928236.373950638,282.3255384103,3297.2581054494535,51.49505301779859,1.973846422047085,0.0013492569579766302
1.662000000000001,5733.036589646676,7.025915317566077,3925457.6014374704,282.29623871868534,3296.588357965144,51.38998356388624,1.975889478067262,0.0013814607645570465
1.702000000000001,5724.37645742318,7.049837916538596,3922676.105289144,282.26689487372215,3295.899654999903,51.284956319416416,1.9779304936306052,0.0014136063876903555
1.742000000000001,5718.37471671219,7.073798192427079,3919891.87988687,282.2375067524885,3295.0986849208116,51.17997135216202,1.979969460155182,0.0014456940891879539
1.7820000000000011,5712.354958486255,7.097815181493787,3917104.9176830244,282.2080742113738,3294.295853058615,51.07502866218432,1.9820063705192479,0.0014777241442384332
1.8220000000000012,5706.347011340905,7.121834801554026,3914315.2022866616,282.1785970129429,3293.492751315664,50.97012793153483,1.9840412242959762,0.001509696899024291
1.8620000000000012,5700.339844619727,7.1458991649608965,3911522.732194896,282.149075076641,3292.686460625343,50.86526938586703,1.986074009703877,0.00154161257187215
1.9020000000000012,5694.3361928556305,7.169994442616688,3908727.5002992214,282.1195082623778,3291.879424714707,50.76045304958681,1.9881047192173582,0.0015734714254085982
1.9420000000000013,5688.335906138413,7.194123610821573,3905929.5008640694,282.0898964442437,3291.0715540328415,50.6556789992659,1.9901333442572111,0.0016052737080805113
1.9820000000000013,5682.3387887837,7.218286918310353,3903128.7280455045,282.0602394948578,3290.2628381238205,50.55094730986476,1.9921598763164392,0.0016370196665933543
2.022000000000001,5676.344823206767,7.242484353242635,3900325.175874308,282.0305372851838,3289.453277176066,50.446258054139605,1.9941843069718743,0.0016687095460688486
2.062000000000001,5670.353924973868,7.266716159409396,3897518.8383450806,282.0007896854699,3288.6428627677924,50.3416113058672,1.9962066278161341,0.0017003435893284756
2.102000000000001,5664.366026830025,7.290982494022752,3894709.709381918,281.97099656488217,3287.8315893055546,50.23700713861017,1.998226830482783,0.0017319220372008293
2.1420000000000012,5658.381059351159,7.315283533931512,3891897.782846865,281.9411577915907,3287.019450588049,50.13244562602688,2.0002449066392334,0.0017634451284741514
2.1820000000000013,5652.398953805114,7.339619453040291,3889083.052538411,281.9112732327502,3286.2064405153938,50.027926841823465,2.002260847987138,0.0017949130999305716
2.2220000000000013,5646.373659813831,7.363990425199187,3886265.51219151,281.88134275449715,3285.3310260517105,49.92345085975946,2.0042746462616523,0.0018263261863677043
2.2620000000000013,5640.325036025797,7.388396284938981,3883445.155477537,281.85136622194574,3284.419468999348,49.81901775365265,2.006286293230741,0.001857684620620128
2.3020000000000014,5634.278372796505,7.4128387143100305,3880621.97613413,281.82134350056566,3283.506884663376,49.714627602017444,2.0082957805982744,0.0018889886325301251
2.3420000000000014,5628.23364007399,7.437316921090808,3877795.9673533873,281.791274449671,3282.593299081763,49.6102804662412,2.010303100456564,0.0019202384539173845
2.3820000000000014,5622.190809978417,7.461831069660781,3874967.122281443,281.7611589277228,3281.678706595397,49.50597640848335,2.012308244913406,0.0019514343145272933
2.4220000000000015,5616.149798898574,7.48638139942046,3872135.4340183646,281.7309967923251,3280.76309812502,49.40171549167554,2.0143112060915715,0.001982576442053483
2.4620000000000015,5610.110545020354,7.51096806634552,3869300.8955895677,281.7007878999168,3279.846467730242,49.29749777850808,2.016311976149251,0.0020136650623886047
2.5020000000000016,5604.072982129011,7.535591253958387,3866463.4999564877,281.67053210588205,3278.928808488476,49.19332333181951,2.018310547271412,0.0020447003995569908
2.5420000000000016,5598.037045097975,7.56025114013175,3863623.2400139514,281.6402292645183,3278.010113688124,49.08919221451029,2.020306911671034,0.002075682675754748
2.5820000000000016,5592.002669304794,7.584947903324484,3860780.1085903468,281.6098792290347,3277.0903766119336,48.98510448955668,2.0223010615882577,0.0021066121113668887
2.6220000000000017,5585.969790524542,7.609681722143651,3857934.098447462,281.5794818515463,3276.1695905497277,48.881060220014014,2.024292989289778,0.0021374889249865772
2.6620000000000017,5579.938344992261,7.63445277515768,3855085.202280295,281.5490369830686,3275.2477488056215,48.77705946901822,2.0262826870682726,0.0021683133334344917
2.7020000000000017,5573.890320068485,7.659261241000072,3852233.412716886,281.518544473512,3274.299286998352,48.6731022997886,2.028270147241806,0.0021990855517776244
2.7420000000000018,5567.816829481918,7.684098847631538,3849378.7223181166,281.4880041716756,3273.303227072291,48.56918877563024,2.0302553621532575,0.0022298057933478957
2.782000000000002,5561.753959873359,7.708967450082485,3846521.126726454,281.4574159589575,3272.306421384489,48.46531907043254,2.0322383218959708,0.0022604742451098774
2.822000000000002,5555.689059488996,7.733887869519362,3843660.6231804723,281.42677973353017,3271.3079093229494,48.36149341585269,2.0342190154079196,0.002291091079608783
2.862000000000002,5549.626527682657,7.7588413959052565,3840797.2023894247,281.3960953232899,3270.306697372708,48.25771181658898,2.0361974363258866,0.0023216565184261853
2.902000000000002,5543.564334440495,7.783835434797199,3837930.8572752103,281.3653625794186,3269.3034491085814,48.15397435745004,2.0381735766628637,0.002352170763628306
2.942000000000002,5537.503554046178,7.808866572270168,3835061.5796851576,281.3345813411726,3268.299088407354,48.0502810880991,2.0401474291782717,0.002382634023479856
2.982000000000002,5531.444321346868,7.833935879515721,3832189.361988927,281.30375145299485,3267.293579376515,47.94663207895751,2.042118986228739,0.0024130465000195326
3.022000000000002,5525.386439402093,7.8590439254576765,3829314.19659007,281.27287275928074,3266.2868985737996,47.843027404071755,2.044088240120179,0.0024434083928998682
3.062000000000002,5519.329887377461,7.884190689803269,3826436.0757538867,281.24194510252727,3265.2790467717423,47.73946713511939,2.0460551832302745,0.002473719900734538
3.102000000000002,5513.274601076497,7.90937639517876,3823554.9916980867,281.2109683243018,3264.2700152674556,47.63595134458124,2.0480198079429313,0.0025039812204111795
3.142000000000002,5507.220522026958,7.934601211507327,3820670.9365698933,281.1799422649923,3263.2597973588518,47.53248010495533,2.0499821066639314,0.002534192547282323
3.182000000000002,5501.156841446275,7.959865313363855,3817783.9024486253,281.1488667638309,3262.2326356774033,47.42905348885597,2.0519420718184413,0.0025643540751597925
3.222000000000002,5495.073593083578,7.9851608543221175,3814893.881345764,281.1177416588907,3261.1661477378148,47.3256715690285,2.053899695850253,0.0025944659963276014
3.2620000000000022,5489.003019116202,8.010485134693063,3812000.868116916,281.0865668184694,3260.0990100895506,47.22233451881741,2.055854969173282,0.0026245284794846626
3.3020000000000023,5482.9289559367035,8.0358678751694,3809104.860706863,281.05534214381646,3259.029818009884,47.11904261989729,2.057807880021888,0.002654541668202674
3.3420000000000023,5476.856696035973,8.061284573918135,3806205.8485947032,281.0240674445359,3257.959594639895,47.015795864026416,2.059758422564576,0.0026845057683682334
3.3820000000000023,5470.7852555677855,8.086742372174912,3803303.8239689106,280.992742558986,3256.888051895339,46.9125943389938,2.0617065890312594,0.0027144209633196037
3.4220000000000024,5464.714586436744,8.112240461725918,3800398.7784687127,280.96136731915584,3255.8152202556766,46.80943811617439,2.0636523720055,0.002744287438575982
3.4620000000000024,5458.64468535171,8.137778948695535,3797490.7036669124,280.92994155586535,3254.7410961365053,46.70632726719559,2.0655957640843337,0.0027741053781906587
3.5020000000000024,5452.575478347268,8.163358092640834,3794579.5910938946,280.89846509902077,3253.6656689309266,46.60326186477086,2.067536757860953,0.0028038749645841244
3.5420000000000025,5446.5069137743885,8.188978045108202,3791665.432200105,280.86693777720507,3252.5889325265434,46.50024198142381,2.06947534595022,0.0028335963788378195
3.5820000000000025,5440.438936919599,8.214638986182417,3788748.21836727,280.8353594177946,3251.510879680421,46.39726768988526,2.071411520980189,0.0028632698006216583
3.6220000000000026,5434.3714932238345,8.240341092702291,3785827.9409062946,280.8037298469323,3250.431503283133,46.2943390630357,2.0733452755928568,0.0028928954082207852
3.6620000000000026,5428.291865860329,8.266084541077738,3782904.5910569336,280.77204888951906,3249.3326852236346,46.191456173905124,2.0752766024437594,0.0029224733785496062
3.7020000000000026,5422.208042354081,8.291853092245335,3779978.1599875204,280.7403163692069,3248.211020232624,46.08861909568019,2.077205494201436,0.002952003887164024
3.7420000000000027,5416.134390302852,8.317660543895876,3777048.6446066136,280.70853217146623,3247.0882421812494,45.98582809874287,2.079131939570108,0.0029814870656128464
3.7820000000000027,5410.05716281175,8.343526422329274,3774116.0411628056,280.6766961742636,3245.9633496858096,45.88308343257569,2.0810559277043343,0.0030109230488727374
3.8220000000000027,5403.981063215163,8.369428711249247,3771180.3385617537,280.6448081754268,3244.8372932117604,45.780385100017874,2.082977452755401,0.003040312024093469
3.8620000000000028,5397.905250633374,8.395373966816939,3768241.528142011,280.61286799869146,3243.7097998765435,45.677733189053335,2.0848965071703267,0.003069654158707716
