time,thrust,OF,ox_tank.pressure,ox_tank.temperature,combustion_chamber.temperature,propellant_mass,propellant_CG,combustion_chamber.fuel_grain.geometry.length_regressed
0.007,254.57146156770224,3.6681045598373774,5364638.432000895,295.74285603838035,2694.0915531978594,54.20307801717851,1.8146901152895107,2.0028470425793472e-05
0.014,1297.242963208438,3.4670836595481864,5363261.495348371,295.7313915512821,2697.0717038180574,54.16278880483616,1.815490308974175,3.995822307180342e-05
0.021,2658.728477263075,3.4237769780547773,5361967.435216959,295.72061501043726,2695.4341622882707,54.124816117441675,1.8162384071363455,5.8979813448039686e-05
0.028,3744.0478655192396,3.3892669152952117,5360748.726996663,295.7104641247264,2685.0461108481595,54.088953921490486,1.8169393370932738,7.716340185868556e-05
0.035,4599.116864388179,3.362737929254055,5359596.3181231,295.7008638069153,2675.216438645767,54.05495288373609,1.81759891374484,9.459846142071748e-05
0.042,5269.782434824065,3.3433326681069238,5358500.785404278,295.6917358136165,2667.483987844864,54.022552321470904,1.8182231186635787,0.00011138176219831044
0.049,5792.940580801462,3.3301158577376047,5357453.01472002,295.68300441422195,2662.127019488624,53.99149916099043,1.8188176854670535,0.00012760976192198388
0.056,6192.46015960638,3.321953758823525,5356444.585830715,295.67459960613775,2658.9277153222906,53.96155883951383,1.8193878724094432,0.00014337382285881616
0.063,6501.008119530684,3.3177015492783846,5355468.0142561,295.66645914001003,2657.4804160962626,53.93252228976676,1.8199383250436543,0.00015875683551570336
0.07,6736.81882966454,3.3163269838255602,5354516.860288922,295.65852943758233,2657.350824028571,53.90420922047008,1.8204730203859063,0.00017383131722846558
0.07700000000000001,6916.357516990473,3.316987175546023,5353585.734355425,295.6507656448287,2658.160620910059,53.8764684652257,1.8209952731474073,0.00018865877372761157
0.08400000000000002,7052.600316926372,3.3190527564024337,5352670.228119204,295.6431310649325,2659.616716387386,53.84917620258424,1.8215077853367168,0.00020329004344939744
0.09100000000000003,7155.703194575388,3.3220618872506655,5351766.799827858,295.6355962084854,2661.501984810346,53.82223284366437,1.8220127217196829,0.00021776630517231994
0.09800000000000003,7233.5399094150225,3.3256985184910914,5350872.646723003,295.62813773455576,2663.665951494784,53.79555951599906,1.8225117914175384,0.00023212034946442516
0.10500000000000004,7292.172944096031,3.3297504919260663,5349985.57660731,295.6207373835893,2666.011520989006,53.76909449402065,1.8230063286577265,0.00024637794504432545
0.11200000000000004,7336.247477560859,3.334077773914986,5349103.89043484,295.61338100126704,2668.471424455028,53.74278991959103,1.8234973658435953,0.00026055913473251236
0.11900000000000005,7369.305537228892,3.338588936572347,5348226.280709188,295.60605769340765,2671.006732820724,53.716608954855474,1.8239856963497965,0.0002746793836325722
0.12600000000000006,7394.040426736248,3.3432243588623236,5347351.746740972,295.59875912085977,2673.590925142565,53.69052340235797,1.824471926638188,0.00028875055208228684
0.13300000000000006,7412.494461506593,3.347944971317787,5346479.5258617895,295.591478927005,2676.207242331994,53.66451177042419,1.8249565184053111,0.0003027816940658384
0.14000000000000007,7426.213263632029,3.352724951234003,5345609.038676653,295.58421228199614,2678.8450540638105,53.6385577318504,1.8254398220342234,0.00031677969752605135
0.14700000000000008,7436.364780372901,3.3575470248121926,5344739.846105414,295.57695552506414,2681.4975608087097,53.612648913705314,1.8259221027856176,0.0003307497894626792
0.15400000000000008,7443.830614340876,3.362399475537337,5343871.616029888,295.5697058867572,2684.160069315081,53.58677595736392,1.8264035610969225,0.0003446959295220007
0.1610000000000001,7449.275439859384,3.367274239753921,5343004.097602403,295.56246127494785,2686.829963552222,53.560931794301155,1.8268843481961965,0.00035862111392269067
0.1680000000000001,7453.20015344106,3.3721656894168843,5342137.101572274,295.55522011093996,2689.505430913618,53.53511109147804,1.827364578044332,0.00037252760855991567
0.1750000000000001,7455.982035576405,3.377069844497551,5341270.485286907,295.54798120450005,2692.185147741371,53.509309828515406,1.8278443364303723,0.00038641712689037013
0.1820000000000001,7457.905118278589,3.381983857601541,5340404.141294732,295.5407436588851,2694.8682033409973,53.48352497643585,1.8283236878764617,0.00040029096516287766
0.1890000000000001,7459.183162029739,3.3869056716609798,5339537.988706848,295.53350679884863,2697.5539626862333,53.457754254200985,1.82880268086728,0.0004141501049287889
0.19600000000000012,7459.976999414247,3.391833788558688,5338671.966661793,295.52627011616755,2700.2419777451873,53.43199594455989,1.8292813518033657,0.0004279952905823813
0.20300000000000012,7460.407614738421,3.3967671102402575,5337806.029388622,295.51903322848574,2702.9319293061626,53.40624875496316,1.829759727985604,0.0004418270879182851
0.24300000000000013,7460.566001131116,3.4017048279125577,5336940.1424813,295.51179584825184,2705.6235881623415,53.380511712630295,1.8302378298659778,0.00045564592829880216
0.28300000000000014,7451.820051833504,3.408898478793301,5331985.824320464,295.4703683787687,2709.52203669689,53.23352305902588,1.8329659472612847,0.0005344725926550541
0.3230000000000001,7441.036812692702,3.4391402369456703,5327027.964390828,295.4288813078776,2724.4387229410972,53.08672076262166,1.8356881569345151,0.0006129396735847158
0.3630000000000001,7439.86120295192,3.4646213444489042,5322064.298349327,295.3873155604925,2736.007425732128,52.940041031675904,1.838405743870964,0.0006910776046037395
0.4030000000000001,7432.454682683817,3.4954808712456757,5317100.151986613,295.3457156350762,2749.999079671508,52.7936313059114,1.8411155066052318,0.000768829400556661
0.44300000000000006,7429.382168249088,3.522756642206463,5312131.83108506,295.3040504886239,2762.3743396564228,52.647387999706176,1.8438195803368063,0.0008462418385385928
0.48300000000000004,7423.568558640658,3.5525900006156,5307161.840782914,295.2623410333308,2775.9005519787893,52.50137981176992,1.846516445151463,0.000923290572447184
0.523,7419.791013639481,3.5808100868162485,5302188.52087326,295.2205732474235,2788.6990240743985,52.355559938613524,1.8492070313665523,0.0009999986411344754
0.5630000000000001,7414.814583088506,3.6102667536891713,5297213.030295183,295.17875677034345,2802.053036648994,52.209959657027255,1.8518906179946717,0.0010763570267424158
0.6030000000000001,7410.832232786715,3.6390113995073694,5292234.6148025235,295.13688517269,2815.0854784548733,52.06455739406175,1.8545676030734228,0.001152378210118061
0.6430000000000001,7406.3490658720475,3.668383475742916,5287253.820818962,295.0949629576859,2828.3991102962905,51.91936748556901,1.8572376280662137,0.0012280599886557498
0.6830000000000002,7402.382948712437,3.6974629348903645,5282270.306477603,295.05298715696125,2841.580082209024,51.774379828569224,1.8599008512763933,0.0013034099999584547
0.7230000000000002,7398.087438459785,3.7268867690859406,5277284.336803577,295.01095991085134,2854.692903340279,51.62960102749965,1.8625570807218357,0.0013784290585981704
0.7630000000000002,7392.398318363033,3.756298805740985,5272295.759567523,294.96887984499585,2865.5519903919685,51.48502625914924,1.86520636615122,0.001453122516914415
0.8030000000000003,7384.777865502238,3.7866608569270106,5267304.598593738,294.92674706767184,2876.752318043575,51.340655557569114,1.8678486565233445,0.0015274937018479543
0.8430000000000003,7378.271457245277,3.816039751456586,5262309.735306898,294.8845520332676,2887.591286575842,51.19645786852871,1.870484551744045,0.0016015582351637148
0.8830000000000003,7371.16681355049,3.846144764932989,5257311.775886375,294.8422997542994,2898.693870660009,51.05244926000634,1.8731136661123713,0.0016753128526566649
0.9230000000000004,7364.579477953764,3.8759335656861458,5252310.341298622,294.79998691991494,2909.6795060037507,50.9086189724903,1.8757361760348255,0.0017487649098894339
0.9630000000000004,7357.798133776742,3.9060854149495867,5247305.69437042,294.75761564568637,2920.796170372369,50.76497372659183,1.878351894204477,0.0018219147692356335
1.0030000000000003,7351.275879269026,3.936165033415924,5242297.688153711,294.7151845802415,2931.8850667933766,50.621509133807294,1.8809608660609545,0.001894767133281585
1.0430000000000004,7344.720441208377,3.9664555833261317,5237286.437776739,294.672694591112,2943.0494906072636,50.478227927589444,1.8835629899492992,0.0019673238420253487
1.0830000000000004,7338.31733161373,3.9967758457855136,5232271.889502224,294.6301451149726,2954.223397934139,50.33512828931762,1.8861582599214768,0.0020395884735484164
1.1230000000000004,7331.866730255226,4.027245212538781,5227254.097534478,294.58753650371193,2965.371634212306,50.192211332686234,1.8887466102573147,0.0021115634054582884
1.1630000000000005,7323.1060354698175,4.057813630815007,5222233.045938936,294.54486851397644,2974.1842770352278,50.049476296416174,1.8913280151227891,0.0021832516989297537
1.2030000000000005,7312.710712661915,4.08924725240265,5217208.731832451,294.5021410126809,2983.2355099895126,49.90692278985413,1.893902441960727,0.0022546562201427676
1.2430000000000005,7303.264380639606,4.119847799484928,5212180.219487812,294.4593459243851,2992.0479143320968,49.7645254854242,1.896470372145422,0.0023257894115703815
1.2830000000000006,7293.352980564609,4.151083088786997,5207147.98782223,294.41648720227596,3001.0385917389503,49.62229702689365,1.8990315047514224,0.0023966489444272425
1.3230000000000006,7283.83462215722,4.182112863228042,5202111.751690791,294.37356229661,3009.9692612431263,49.480229615817194,1.901585960599109,0.002467240347753802
1.3630000000000007,7274.195055736756,4.213450966644204,5197071.692069363,294.33057262725885,3018.985623887339,49.33832792631374,1.9041336050093063,0.002537564300683023
1.4030000000000007,7264.740808212081,4.244789480406521,5192027.710588233,294.2875172329108,3028.000448598412,49.19658919340472,1.90667445680829,0.0026076243004316793
1.4430000000000007,7255.286583564111,4.276316565034898,5186979.876096378,294.24439657829504,3037.067039886679,49.05501511892174,1.9092084441333699,0.0026774220918250203
1.4830000000000008,7245.941882396001,4.3079205378962335,5181928.156554296,294.20121026667925,3046.1538032403037,48.91360473563072,1.9117355505112863,0.0027469604005905764
1.5230000000000008,7237.370690648734,4.33967100040296,5176872.580036342,294.1579584145628,3054.4294441760485,48.77235868420516,1.914255727414214,0.0028162413011442243
1.5630000000000008,7229.584291850095,4.3718297995986415,5171813.138028635,294.1146408253629,3061.2643694159515,48.63127664841066,1.9167689465737539,0.002885267194185473
1.6030000000000009,7221.051821994877,4.404304217872356,5166749.493256653,294.0712544838922,3068.158357361934,48.490349672314835,1.9192753554524629,0.002954043695908184
1.643000000000001,7212.92590221336,4.436434712386077,5161681.182257622,294.02779528333355,3074.9786231402168,48.34956556071995,1.9217751664628864,0.0030225775672882743
1.683000000000001,7204.665934158239,4.468929544155062,5156608.411894599,293.9842648587136,3081.872815300371,48.208929800363364,1.9242682339565085,0.003090868862528111
1.723000000000001,7196.574178481261,4.501426429979512,5151531.067731843,293.94066208967735,3088.765690374717,48.06843943830225,1.926754583796504,0.0031589207775933876
1.763000000000001,7188.484433442783,4.534129822200463,5146449.215046875,293.8969873974692,3095.6997224809015,47.92809625129823,1.9292341468921446,0.003226734701676011
1.803000000000001,7180.486473025203,4.566929180452973,5141362.820351749,293.85324035475276,3102.65198239528,47.78789943826739,1.93170690677558,0.003294312957199005
1.843000000000001,7172.529982818845,4.599887693695729,5136271.903913336,293.80942099567113,3109.6352054236677,47.64784961492509,1.934172819046512,0.003361657307015787
1.8830000000000011,7165.048637143753,4.632972695059838,5131176.456110251,293.765529096838,3116.468284220454,47.50794662668025,1.936631855371382,0.0034287697706795917
1.9230000000000012,7162.230689104841,4.666253968376676,5126076.483295384,293.72156457186264,3121.352313480612,47.368190745321,1.9390839794269321,0.0034956521799956444
1.9630000000000012,7158.632090006485,4.700180132418288,5120971.928346797,293.6775267861918,3126.320890601524,47.2285806073869,1.9415291880562382,0.0035623069402712297
2.003000000000001,7155.501139795415,4.733620327879467,5115862.201559996,293.63341050326875,3131.2185994003266,47.08910110214877,1.9439677519179255,0.0036287414692352674
2.043000000000001,7152.33666422818,4.767508757292168,5110747.55877853,293.58921777903015,3136.178480922953,46.94975905773575,1.9463995042475495,0.003694955068490147
2.083000000000001,7149.401028956179,4.801393436102321,5105627.862546422,293.5449472734447,3141.1364085784635,46.81055113297386,1.9488244813258204,0.0037609507521560973
2.123000000000001,7146.565616935527,4.835508314405671,5100503.176558177,293.5005993836256,3146.1255755958323,46.67147919278605,1.951242616398087,0.0038267295990747677
2.163000000000001,7143.897478656878,4.869736896143517,5095373.4625563,293.45617362452157,3151.1294752061667,46.53254248229483,1.9536538951551548,0.0038922936213023097
2.203000000000001,7141.3658771232085,4.904140638015427,5090238.73335766,293.4116699523199,3156.1568198114696,46.39374157037094,1.9560582775138686,0.003957644322997871
2.243000000000001,7136.7576253611005,4.938690784174953,5085098.975677518,293.3670880964806,3160.873059891543,46.25507636416843,1.9584557369032005,0.004022783424997115
2.2830000000000013,7121.850010896659,4.973681047648071,5079954.188986561,293.3224278962896,3164.1619896438547,46.11654710670735,1.9608462405441458,0.004087712502393537
2.3230000000000013,7104.955883655856,5.009758328853441,5074804.0788009055,293.27768663572266,3167.5333603878025,45.97814656090047,1.9632299025981046,0.00415243580056183
2.3630000000000013,7089.120945325409,5.044748843423725,5069647.474621093,293.23285397091206,3170.805068188082,45.83984527980989,1.9656072706361327,0.004216965494461604
2.4030000000000014,7073.030649590471,5.080406519960033,5064484.811944514,293.18793350476113,3174.1357523890565,45.70165480248626,1.9679780883547933,0.0042812989494735556
2.4430000000000014,7057.1947936748065,5.116046431034145,5059315.90097981,293.1429234042594,3177.4635191198045,45.56357075358308,1.970342411422167,0.004345439238609191
2.4830000000000014,7041.414538731821,5.151939877367623,5054140.795833549,293.09782395681293,3180.811382468959,45.425594967102455,1.972700174469591,0.004409387184789975
2.5230000000000015,7025.764365142118,5.18798391911279,5048959.455316514,293.0526346191215,3184.1703573097493,45.28772686864522,1.9750513594083372,0.0044731444538156665
2.5630000000000015,7010.214457364177,5.224220773968214,5043771.874240232,293.00735516036764,3187.545385159767,45.14996680495982,1.9773959305128859,0.004536712362676097
2.6030000000000015,7004.344408795859,5.260636464143308,5038578.033169234,292.96198522434406,3189.9126847308403,45.01231477198316,1.9797338591555502,0.004600092334260284
2.6430000000000016,7001.946784658603,5.297534049296033,5033377.917995465,292.9165245001472,3191.9065478960374,44.87477090925159,1.9820651141986494,0.004663285721560431
2.6830000000000016,6999.698717556883,5.334412961039113,5028171.221767576,292.8709701125656,3193.897369084001,44.737328030619516,1.984389805636302,0.004726296442276217
2.7230000000000016,6997.671586915617,5.371474451384437,5022957.919662303,292.8253216484093,3195.896952912903,44.59998606689167,1.9867079059693042,0.00478912586896167
2.7630000000000017,6995.864844013223,5.4087347920379525,5017737.997591652,292.779578787104,3197.906106313839,44.46274522725852,1.9890193825752447,0.004851775258439785
2.8030000000000017,6994.286103888405,5.446189569429979,5012511.435319681,292.7337411529311,3199.9245995956685,44.32560557616885,1.9913242058399165,0.004914245901423289
2.8430000000000017,6992.940973980871,5.483843053282936,5007278.214274157,292.68780838339524,3201.952649216233,44.188567228823274,1.9936223453913426,0.004976539053942544
2.883000000000002,6991.835447554898,5.521697061948136,5002038.314871513,292.64178010576734,3203.9903387327863,44.05564887125092,1.9960282737582808,0.005038655961173029
2.923000000000002,6987.265490176598,5.543067015067413,4996791.716947832,292.59565594083074,3204.92064778154,43.925245014391336,1.9984965536306913,0.005100624076462869
2.963000000000002,6979.668014019854,5.555934598359531,4991539.829179367,292.5494480844396,3205.1971845378143,43.79494643088886,2.000956912684945,0.005162447730962488
3.003000000000002,6971.832303645292,5.569251083156603,4986283.027522746,292.50315967445346,3205.4833179977063,43.66476278040228,2.003409147168179,0.005224124226433439
3.043000000000002,6964.068064843956,5.582368537215695,4981021.127682818,292.4567889195264,3205.7642295553496,43.53469035879564,2.0058533306489896,0.005285655682401461
3.083000000000002,6956.290093402354,5.59550474274547,4975754.148435593,292.4103358141529,3206.043907018841,43.40473030475659,2.008289436305236,0.0053470424641079125
3.123000000000002,6948.5181279643475,5.608601254187867,4970482.051498417,292.3637998488483,3206.3211463755742,43.27488240363032,2.010717465233692,0.00540828541662798
3.163000000000002,6940.746591325582,5.621672484785661,4965204.812027898,292.3171806311319,3206.5972833527967,43.14514676411784,2.013137411798763,0.005469385261266989
3.203000000000002,6932.9784890052215,5.634713562960434,4959922.401500371,292.27047773458145,3206.8722179374345,43.01552341193541,2.0155492720064947,0.005530342741730014
3.243000000000002,6925.2127600457,5.647726824919126,4954634.79334167,292.2236907485268,3207.1460052342613,42.886012423060414,2.0179530407683464,0.005591158576464249
3.283000000000002,6917.4494816853585,5.660711716044993,4949341.960265315,292.1768192545296,3207.418631895144,42.756613860815875,2.0203487131900273,0.005651833481305099
3.323000000000002,6909.688436686396,5.673668493364262,4944043.875037639,292.129862833133,3207.6901040648754,42.62732779396973,2.022736284199684,0.0057123681631021704
3.363000000000002,6901.929484455539,5.686597199712878,4938740.5102743795,292.08282106204905,3207.9604227091654,42.49815429197497,2.0251157486436453,0.0057727633215199125
3.4030000000000022,6894.172466717041,5.699497930594517,4933431.83849037,292.03569351658587,3208.229590055257,42.36909342617471,2.027487101260476,0.005833019648706023
3.4430000000000023,6886.417231227487,5.712370766171667,4928117.832084623,291.9884797695021,3208.4976079484263,42.24014526948766,2.029850336685965,0.0058931378295000204
3.4830000000000023,6878.663625803538,5.725215788468106,4922798.463341765,291.941179391006,3208.764478268071,42.11130989647732,2.032205449450342,0.005953118541503485
3.5230000000000024,6870.911499772957,5.738033077070677,4917473.704429248,291.89379194871736,3209.03020282375,41.98258738332526,2.0345524339774497,0.006012962455182699
3.5630000000000024,6863.160703579864,5.750822710223518,4912143.527395681,291.84631700763845,3209.2947833817275,41.8539778078286,2.0368912845834304,0.006072670233961052
3.6030000000000024,6855.4110888474115,5.76358476457643,4906807.904168784,291.7987541301221,3209.5582216589187,41.72548124939188,2.039221995475552,0.006132242534311854
3.6430000000000025,6847.662508328559,5.776319315266728,4901466.806553484,291.75110287584044,3209.8205193249223,41.59709778902059,2.041544560750998,0.006191680005848968
3.6830000000000025,6839.914815884653,5.789026435918463,4896120.206229914,291.7033628017526,3210.081678002042,41.46882750931452,2.0438589743956728,0.006250983291415956
3.7230000000000025,6832.167866458006,5.8017061986614085,4890768.074751407,291.65553346207224,3210.341699265788,41.34067049446162,2.0461652302830116,0.006310153027173596
3.7630000000000026,6824.421516046357,5.814358674144838,4885410.383542473,291.60761440823484,3210.600584645248,41.21262683023182,2.0484633221728035,0.006369189842685848
