time,thrust,OF,ox_tank.pressure,ox_tank.temperature,combustion_chamber.temperature,propellant_mass,propellant_CG,combustion_chamber.fuel_grain.geometry.length_regressed
0.007,239.09550384403573,9.860896359531214,4874886.008375917,291.5133677899425,2690.6824648372517,48.920246900997284,1.9791744329302579,7.209662601701659e-06
0.014,827.0276804398943,9.419549060087066,4873523.866756559,291.50115836083864,2829.837394279769,48.88538301145767,1.9799829188739968,1.4399076406050946e-05
0.021,1847.1110840773113,9.203057446138912,4872226.348240579,291.48952575393315,2883.0581456542423,48.8521187697312,1.98075058905039,2.1412480586377444e-05
0.028,2709.620712761033,9.0135272454183,4870989.708946304,291.478436746423,2915.9567854156253,48.82036215285518,1.9814799090762851,2.8256167685164692e-05
0.035,3420.35897597378,8.847686074955242,4869807.8750014845,291.46783717448113,2939.2042420910147,48.78996388355783,1.9821747640151846,3.494345161682157e-05
0.042,4000.5094609185876,8.70518991124659,4868674.330342838,291.4576688535701,2956.5029562738346,48.76076370501053,1.9828392853272376,4.148980644081044e-05
0.049,4470.495021918096,8.584952515417083,4867582.580261551,291.4478737386635,2969.7603055476634,48.732601751723195,1.9834775653774868,4.791159020937626e-05
0.056,4848.6321147333965,8.485239725692033,4866526.433299213,291.4383964582611,2979.9732918239492,48.705325491894584,1.9840934862516262,5.42251541579636e-05
0.063,5151.136831680378,8.403810304315247,4865500.180859148,291.4291859321771,2987.9189463486437,48.678794175454655,1.9846906127001824,6.044617617108932e-05
0.07,5391.9294041798075,8.338240456396512,4864498.711111533,291.420196400267,2994.1254438015458,48.65288167485659,1.9852721259480715,6.658915594652109e-05
0.07700000000000001,5582.750633317143,8.286116752329482,4863517.556354244,291.4113878539171,2998.952332159031,48.627477687797885,1.9858407983436976,7.266710737525047e-05
0.08400000000000002,5733.377179622175,8.24517666526583,4862552.89169484,291.40272603016075,3002.694028937265,48.602487735323564,1.9863989975170555,7.869141648352168e-05
0.09100000000000003,5851.856539013033,8.213397776791235,4861601.499920251,291.39418210159533,3005.557363077101,48.57783231867916,1.9869487107472037,8.467183032784639e-05
0.09800000000000003,5944.797692633192,8.18903574731826,4860660.714864588,291.38573217248575,3007.7584064434545,48.55344553799288,1.9874915819400978,9.061654149657744e-05
0.10500000000000004,6017.499377600796,8.170634306262967,4859728.353952987,291.3773566768925,3009.456162767994,48.52927343720835,1.9880289547045378,9.653233264845901e-05
0.11200000000000004,6074.216021999824,8.156984694888532,4858802.64715799,291.36903974383523,3010.738287285327,48.50527225547946,1.9885619171642421,0.00010242475377097
0.11900000000000005,6118.345467143921,8.14710139112623,4857882.170698167,291.3607686043802,3011.71034965933,48.48140679218117,1.9890913435039193,0.0001082983006639443
0.12600000000000006,6152.57902069834,8.140197581708302,4856965.787020104,291.3525330545949,3012.4376622208924,48.45764892496584,1.9896179313891895,0.00011415658508248513
0.13300000000000006,6179.045326714,8.13564218904499,4856052.591418313,291.3443249776474,3012.9702304188927,48.43397629064048,1.9901422351109312,0.0001200024917489604
0.14000000000000007,6199.422014610233,8.132934633254813,4855141.86724989,291.3361379427247,3013.347101813387,48.41037117777526,1.9906646933206122,0.00012583831325315242
0.14700000000000008,6215.027608357067,8.131679346393277,4854233.048534706,291.3279668699904,3013.606629859253,48.386819601601225,1.991185652138301,0.00013166586476724424
0.15400000000000008,6226.900762636628,8.131561323567302,4853325.68926162,291.3198077555458,3013.774281175905,48.3633105446227,1.9917053840819943,0.00013748657945099134
0.1610000000000001,6235.855864859195,8.132334069239866,4852419.4388779225,291.31165745175883,3013.870023160115,48.33983535009829,1.9922241031641184,0.00014330158536897365
0.1680000000000001,6242.530722170627,8.133804029121825,4851514.022277304,291.3035134878657,3013.909521831236,48.316387226860876,1.9927419771982446,0.00014911176878001437
0.1750000000000001,6247.424407060548,8.135819421190602,4850609.223814622,291.2953739266433,3013.905053146962,48.29296085379377,1.9932591376180067,0.0001549178249758449
0.1820000000000001,6250.92716597717,8.138261344642602,4849704.874605047,291.28723725051,3013.8662272383667,48.26955206560494,1.9937756872704206,0.0001607202988442294
0.1890000000000001,6253.343986692064,8.14103673073388,4848800.842473471,291.27910227137784,3013.800561679643,48.24615760420383,1.9942917065771604,0.00016651961706887994
0.19600000000000012,6254.91312681109,8.144072774758495,4847897.024025984,291.2709680595276,3013.713933743277,48.222774922604785,1.994807258390689,0.00017231611358997238
0.20300000000000012,6255.820655066785,8.14731255026591,4846993.338410526,291.2628338876271,3013.6109362745824,48.19940203063787,1.995322391812683,0.00017811004967451593
0.21000000000000013,6256.211847753966,8.150711561795658,4846089.722415997,291.2546991867529,3013.4951571774386,48.17603737378423,1.9958371451909802,0.00018390162970037112
0.2500000000000001,6256.2001109282255,8.154235039638818,4845186.126628358,291.24656351189094,3013.369398578465,48.15267973816438,1.9963515484684256,0.00018969101354662928
0.2900000000000001,6248.462589626091,8.159460103194766,4840012.875264537,291.1999630139436,3013.0767663741426,48.01925002180142,1.99928696701316,0.00022274181380227808
0.33000000000000007,6241.274449982592,8.18142260686652,4834834.755686365,291.15328064679886,3012.195272732339,47.885915277487626,2.0022142577188244,0.000255738591105656
0.37000000000000005,6232.767508315925,8.204799642426671,4829652.060623628,291.10651888066064,3011.245478935926,47.752683479613374,2.0051332353044993,0.00028868054395931323
0.41000000000000003,6224.5305373688425,8.227380801167657,4824464.033003346,291.0596707100586,3010.3279873090096,47.6195369933995,2.008044338655748,0.0003215702048384958
0.45,6216.2772228690765,8.250108651077662,4819270.790784243,291.01273701774386,3009.4052786409034,47.486479574512025,2.0109474840051766,0.0003544073145743186
0.49,6207.997849780268,8.272846688734385,4814072.294506794,290.96571726482597,3008.4548909806495,47.35351113848591,2.013842681210199,0.00038719211272843923
0.53,6199.736533852726,8.295577320165163,4808868.511935377,290.9186109759344,3007.498687903246,47.22063178125292,2.016729935640867,0.0004199248135125419
0.5700000000000001,6191.476947623687,8.318331660058455,4803659.425532925,290.87141780722334,3006.5418864904473,47.08784195854212,2.0196092438973996,0.00045260558268092296
0.6100000000000001,6183.217848078141,8.341101173403926,4798445.005532011,290.824137302639,3005.584786654607,46.955141832652885,2.022480609621614,0.00048523462235939804
0.6500000000000001,6174.960042131681,8.36388462111892,4793225.221383071,290.7767689973858,3004.6274455725707,46.82253155094219,2.0253440367356577,0.0005178121348516421
0.6900000000000002,6166.703316081152,8.386682635542691,4788000.042913181,290.7293124284153,3003.668276239793,46.69001127390442,2.0281995287653936,0.0005503383190210652
0.7300000000000002,6158.444730345322,8.409497781835292,4782769.439731852,290.6817671290266,3002.7077259163416,46.557581160849196,2.031047089186391,0.0005828133721682067
0.7700000000000002,6150.186524265474,8.432326750796367,4777533.379725768,290.63413261514756,3001.7469322361276,46.42524133387045,2.0338867222839685,0.0006152374946969326
0.8100000000000003,6141.930135289049,8.455169296851503,4772291.831970242,290.5864084117791,3000.7859244550605,46.292991947948956,2.036718431474109,0.0006476108810763921
0.8500000000000003,6133.675071382389,8.478026554768702,4767044.76627298,290.5385940488696,2999.824653878156,46.16083317983569,2.0395422195759707,0.0006799337213121482
0.8900000000000003,6125.421271813754,8.500898391078515,4761792.152083106,290.4906890513783,2998.8631248127167,46.02876520189837,2.04235808943788,0.0007122062043425743
0.9300000000000004,6117.168645398622,8.52378489374709,4756533.9587305,290.44269294143606,2997.901332944632,45.89678818792778,2.045166043798943,0.0007444285173082134
0.9700000000000004,6108.917094743017,8.546686141664884,4751270.15540644,290.3946052381527,2996.939274218093,45.76490231273215,2.047966085299125,0.0007766008456227618
1.0100000000000005,6100.65387610077,8.569602207083568,4746000.711157462,290.34642545754446,2995.9627748113767,45.63310775205143,2.050758216481677,0.0008087233730024386
1.0500000000000005,6092.395909977943,8.592520210355751,4740725.594884377,290.29815311250826,2994.9759464904137,45.501404682594796,2.053542439792639,0.0008407962814792338
1.0900000000000005,6084.145766479603,8.6154530623035,4735444.783319466,290.2497877858958,2993.9889428954875,45.369793470839824,2.0563187531480627,0.0008728197272423515
1.1300000000000006,6075.893657812274,8.638406683166519,4730158.249122934,290.2013290216472,2993.0014041092063,45.23827439029937,2.0590871566054774,0.0009047938769422149
1.1700000000000006,6067.6417089321485,8.661374536458395,4724865.959230802,290.1527763094588,2992.0136086510893,45.1068475834371,2.0618476532318475,0.00093671891251857
1.2100000000000006,6059.38967048855,8.684357870187213,4719567.881685128,290.1041291472907,2991.0255058691882,44.97551322363731,2.064600245292343,0.0009685950104521529
1.2500000000000007,6051.137415212862,8.7073567149183,4714263.984280295,290.055387028952,2990.0370931696193,44.84427148320147,2.067344935003248,0.0010004223458832718
1.2900000000000007,6042.884863979423,8.730371109633321,4708954.234627718,290.0065494446746,2989.0483683053035,44.71312253494962,2.0700817244946514,0.001032201092423044
1.3300000000000007,6034.631924640231,8.753401127307857,4703638.600181159,289.9576158813263,2988.05932756454,44.58206655288052,2.0728106157954236,0.0010639314220854113
1.3700000000000008,6026.3785066588325,8.776446832017111,4698317.048226496,289.90858582229816,2987.0699676044774,44.45110371199651,2.075531610837717,0.001095613505325704
1.4100000000000008,6018.124520019322,8.799508286847246,4692989.545879862,289.85945874746784,2986.0802851349245,44.32023418832645,2.078244711456854,0.001127247511053644
1.4500000000000008,6009.869936150653,8.822585553613097,4687656.0600852305,289.8102341331578,2985.0886867762338,44.189458158934556,2.080949919391529,0.001158833606647945
1.4900000000000009,6001.610063853555,8.845683152219937,4682316.557611738,289.76091145209074,2984.095521162165,44.05877580192599,2.0836472362841043,0.001190371957971093
1.530000000000001,5993.339570770726,8.868796428396722,4676971.002349195,289.71149014835487,2983.094152319062,43.928187233769926,2.086336665118974,0.0012218627373355665
1.570000000000001,5985.071981980637,8.89191136976001,4671619.359510951,289.6619696761823,2982.083266480774,43.79769260726789,2.0890182079648865,0.0012533061110661225
1.610000000000001,5976.817305673106,8.915035323575141,4666261.603384724,289.61234957180284,2981.072515347898,43.667292290464616,2.091691861896894,0.0012847022168760258
1.650000000000001,5968.558378065937,8.938185266541904,4660897.708296115,289.5626293699967,2980.061003314491,43.53698665625465,2.094357623845023,0.0013160511906246083
1.690000000000001,5960.298501816162,8.961349532131036,4655527.63827916,289.5128085082111,2979.0492288259084,43.406775844513234,2.097015496006295,0.001347353196409415
1.730000000000001,5952.037450884333,8.984529958433242,4650151.359163439,289.46288643841547,2978.037117910031,43.27666004216497,2.099665479431215,0.001378608391066982
1.7700000000000011,5943.775060087358,9.007726608302548,4644768.836508196,289.4128626079521,2977.024666269874,43.146639435431084,2.1023075751169613,0.0014098169302404814
1.8100000000000012,5935.511261717748,9.030939472066853,4639380.035630222,289.36273645977013,2976.0118737709145,43.01671421055568,2.104941783990983,0.0014409789683009866
1.8500000000000012,5927.245967511946,9.05416860769084,4633984.921659068,289.31250743291554,2974.9987373822846,42.886884555150644,2.1075681068808696,0.0014720946581910528
1.8900000000000012,5918.979090464805,9.077414060365387,4628583.459521918,289.2621749623678,2973.985254593319,42.75715065792022,2.1101865445210675,0.0015031641514730242
1.9300000000000013,5910.710544251833,9.100675873802718,4623175.613941263,289.21173847899485,2972.9714229678434,42.62751270868202,2.1127970975528685,0.0015341875983396864
1.9700000000000013,5902.440242650349,9.123954090543979,4617761.349432259,289.1611974095051,2971.9572401242654,42.49797089838094,2.1153997665245736,0.0015651651476256282
2.010000000000001,5894.168099657524,9.147248751533338,4612340.630299689,289.11055117639523,2970.942703753633,42.36852541909537,2.117994551891817,0.0015960969468194032
2.050000000000001,5887.3578294470735,9.170559896178155,4606913.420634981,289.0597991978979,2969.9225847301414,42.23917646404524,2.120581454017881,0.0016269831420752865
2.090000000000001,5882.542528441565,9.193875037597342,4601479.684313186,289.00894088792927,2968.895749516729,42.10992422760005,2.1231604731739937,0.0016578238782248554
2.1300000000000012,5877.769050423171,9.217197811748342,4596039.392421453,288.95797572568557,2967.8691045311243,41.98076907290385,2.12573160581732,0.0016886192777748282
2.1700000000000013,5873.023598799968,9.240546972442607,4590592.517403108,288.9069032009977,2966.8416842827237,41.85171139850465,2.128294847587711,0.0017193694577123627
2.2100000000000013,5868.30790830199,9.26391055563764,4585139.021168791,288.8557227027482,2965.81244568795,41.722751370971054,2.130850199228233,0.0017500745630044928
2.2500000000000013,5863.623701707882,9.287288740230567,4579678.867321311,288.8044336332959,2964.7818546788703,41.5938892013488,2.133397660430012,0.0017807347319103268
2.2900000000000014,5858.970047436775,9.310683871006676,4574212.020107622,288.7530353986728,2963.750903791154,41.465125121365986,2.135937230367091,0.001811350098988882
2.3300000000000014,5854.34628198542,9.334096225997895,4568738.442611522,288.70152739157993,2962.719567777076,41.33645934295297,2.138468908590756,0.0018419208001764992
2.3700000000000014,5849.752816306227,9.357525059839377,4563258.097064574,288.6499089942509,2961.687878485286,41.20789206545973,2.1409926948667826,0.0018724469718869449
2.4100000000000015,5845.1899568179115,9.380970534933503,4557770.945603017,288.59817958553714,2960.655828738961,41.07942349271218,2.1435085887996954,0.001902928748888562
2.4500000000000015,5840.658002196619,9.40443267277233,4552276.950110997,288.5463385394064,2959.623417007215,40.95105382958333,2.1460165899089176,0.0019333662647444062
2.4900000000000015,5836.157262679145,9.427911490518015,4546776.072221982,288.4943852249274,2958.5906420251863,40.82278328211042,2.1485166976267442,0.001963759651808606
2.5300000000000016,5831.688053561226,9.451407008569642,4541268.273319297,288.4423190062461,2957.5575023902384,40.69461205759256,2.1510089112967745,0.0019941090412250594
2.5700000000000016,5825.016863290735,9.474919244786197,4535753.514531744,288.3901392425153,2956.5198772069098,40.566540364580106,2.1534932301747265,0.0020244145629395058
2.6100000000000017,5816.327892424679,9.49843145757712,4530231.756730121,288.3378452878319,2955.478998095904,40.43856841288506,2.155969653428808,0.002054676345708841
2.6500000000000017,5807.647876318513,9.521956476608274,4524702.970306042,288.28543658394545,2954.438061307417,40.310696628605044,2.1584381755026403,0.002084894490405171
2.6900000000000017,5798.962713850131,9.54550703136879,4519167.122805112,288.2329125432658,2953.3963761970676,40.182925380752756,2.1608987920513254,0.0021150691040566056
2.7300000000000018,5790.275207486886,9.569072695805085,4513624.172787023,288.1802724903852,2952.3543905157503,40.05525484751469,2.1633515027991352,0.002145200316417394
2.770000000000002,5781.5851840212945,9.592655007345233,4508074.080236048,288.12751576066864,2951.3120421804774,39.927685245715935,2.165796306577753,0.0021752882514464987
2.810000000000002,5772.892485169527,9.616254022050686,4502516.804824614,288.0746416837674,2950.269327443175,39.800216792676295,2.1682332021512636,0.0022053330320595927
2.850000000000002,5764.197043983027,9.639869687081267,4496952.305899044,288.02164958344997,2949.2262480700933,39.672849706001834,2.170662188221065,0.0022353347801642963
2.890000000000002,5755.498776406289,9.663502014545937,4491380.542532723,287.9685387780739,2948.1828030561933,39.545584204842605,2.173083263399521,0.0022652936165138155
2.930000000000002,5746.797598664617,9.687151005871987,4485801.473512078,287.9153085804192,2947.1389918263576,39.41842050968168,2.1754964262151786,0.002295209660742682
2.970000000000002,5738.09370188806,9.710816660090869,4480215.057332652,287.8619582976175,2946.093222282099,39.2913588423465,2.177901675113226,0.0023250830313747968
3.010000000000002,5729.386237384289,9.734499739021103,4474621.252195449,287.8084872310823,2945.0459070216343,39.164399426026456,2.1802990084558234,0.002354913845830577
3.050000000000002,5720.675243896582,9.758199516756092,4469020.015561695,287.7548946722128,2943.9982233396986,39.03754247578675,2.1826884247227416,0.002384702221606578
3.090000000000002,5711.96363609898,9.78191564884384,4463411.304785049,287.7011799083956,2942.946970932563,38.91078821234867,2.185069922220031,0.002414448274581278
3.130000000000002,5703.270756418952,9.805624742296633,4457795.077205435,287.647342223878,2941.89537800464,38.784136864157816,2.187443499038449,0.0024441521187711125
3.170000000000002,5694.578239851897,9.829357638933184,4452171.303451296,287.59338102744306,2940.843195770168,38.65758895195474,2.1898091471011827,0.0024738138312980907
3.210000000000002,5685.880689550306,9.853110932794529,4446539.942913519,287.539295617326,2939.790485215239,38.531144762262926,2.1921668632277127,0.002503433517321154
3.250000000000002,5677.179612545482,9.876879786259165,4440900.951118651,287.485085251596,2938.7374578762006,38.40480450703201,2.1945166457516727,0.002533011290307729
3.2900000000000023,5668.474810985565,9.900665156930346,4435254.284255914,287.43074919153867,2937.6840740705034,38.278568420767364,2.1968584924849104,0.0025625472600708113
3.3300000000000023,5659.766171231836,9.924467006537707,4429599.898124035,287.3762866915137,2936.6303344416865,38.15243673807505,2.199192401188958,0.00259204153554482
3.3700000000000023,5651.053619033919,9.94828528637157,4423937.748169112,287.32169699927823,2935.5762405859305,38.02640969458595,2.2015183695564478,0.002621494224679906
3.4100000000000024,5642.337070385123,9.972119979085079,4418267.7895061625,287.266979356154,2934.5217927409194,37.90048752752412,2.2038363952001507,0.0026509054343802547
3.4500000000000024,5633.616441656749,9.995971059520427,4412589.976908496,287.2121329968845,2933.4669914635747,37.7746704755911,2.206146475656281,0.0026802752705264417
3.4900000000000024,5624.891649372003,10.019838500291874,4406904.26480316,287.15715714955,2932.411837407434,37.648958778983214,2.2084486083850505,0.0027096038379813355
3.5300000000000025,5616.162609909122,10.043722272032715,4401210.6072664065,287.10205103548157,2931.3563313088866,37.52335267940744,2.210742790771274,0.0027388912405960667
3.5700000000000025,5607.429772399694,10.067622343140226,4395508.958018697,287.0468138691707,2930.300408169303,37.39785242009351,2.2130290201250795,0.0027681375812163714
3.6100000000000025,5598.706386375795,10.091537360105807,4389799.270419876,286.99144485817914,2929.242622536611,37.27245824580692,2.2153072936826104,0.002797342961688725
3.6500000000000026,5590.005089321212,10.115437703899074,4384081.498214197,286.93594321033066,2928.186063652458,37.147170418488884,2.217577608289134,0.002826507480955748
3.6900000000000026,5581.294094928775,10.139375476417241,4378355.611950338,286.880308293324,2927.1282564576322,37.02198955850065,2.2198399534849735,0.00285563119337124
3.7300000000000026,5572.578679716735,10.163326537866231,4372621.560825618,286.8245392642262,2926.0682844132803,36.89691584939637,2.22209432767975,0.0028847142059660407
