time,thrust,OF,ox_tank.pressure,ox_tank.temperature,combustion_chamber.temperature,propellant_mass,propellant_CG,combustion_chamber.fuel_grain.geometry.length_regressed
0.007,234.6880715088032,4.7893597698011945,3594991.9035621206,278.6964616435773,2810.941023368731,56.813336563432145,1.9151107838104076,1.174457467668596e-05
0.014,906.5609298159127,4.434071328525734,3594323.861334221,278.6889412546783,2899.9970760872498,56.780793954474866,1.9156970572757268,2.3421447641750153e-05
0.021,1952.9409232459018,4.339499767270591,3593709.137837154,278.68202018184274,2920.432400114407,56.750753385662634,1.9162338127557939,3.440075241461964e-05
0.028,2790.4666411645535,4.269431800972366,3593143.6570330304,278.6756527525938,2921.487948188772,56.72302833036005,1.9167250227739518,4.472235023372278e-05
0.035,3409.8372853384835,4.21836225291167,3592620.803096445,278.669764652189,2918.5231440047387,56.6973124834691,1.917176953060535,5.446249398726696e-05
0.042,3883.9330844824485,4.183896567087223,3592133.4535478996,278.6642758133864,2915.7883118716186,56.67327426471525,1.917596274019849,6.37085544985105e-05
0.049,4234.514864654208,4.163018808345257,3591674.736740734,278.65910895227194,2914.337613819548,56.65059233576975,1.9179893682688853,7.254876664890346e-05
0.056,4475.730756448514,4.152053619521512,3591238.461387175,278.6541944134956,2914.125778057161,56.62897607774636,1.918361948496139,8.106555544949266e-05
0.063,4660.753134692053,4.147721610575778,3590819.361916997,278.6494729418441,2914.8203768583126,56.60817755831261,1.9187188474894719,8.933103968813024e-05
0.07,4794.108137561654,4.147421880277661,3590413.152654848,278.6448962998013,2916.0181302968454,56.58799448640787,1.9190639820224564,9.740522549507809e-05
0.07700000000000001,4892.939883229492,4.14935960040886,3590016.467011597,278.6404265886372,2917.431809671368,56.568267652952706,1.9194004186353733,0.00010533604747690551
0.08400000000000002,4965.707584977563,4.152420411514184,3589626.7319385177,278.6360348388596,2918.8836281024533,56.54887520604516,1.9197304949688947,0.00011316060259028283
0.09100000000000003,5016.69841389363,4.1559732448268605,3589242.021291331,278.63169936179935,2920.2833754633593,56.52972583855226,1.920055957432175,0.00012090691640729362
0.09800000000000003,5051.396376443759,4.15969083662267,3588860.915254641,278.62740416841405,2921.5931250402805,56.510752199897844,1.920378091355294,0.00012859578386032882
0.10500000000000004,5075.987565916707,4.1634201338892245,3588482.3790037013,278.62313760401076,2922.816607443161,56.49190518074559,1.9206978324118782,0.0001362424320455239
0.11200000000000004,5093.372522864564,4.167099620776191,3588105.6644556466,278.61889124251184,2923.962742605811,56.47314927068454,1.9210158563602773,0.00014385790460043343
0.11900000000000005,5105.62957540871,4.1707129541471515,3587730.234023231,278.6146590281978,2925.0454189163747,56.45445894823926,1.9213326484361244,0.00015145015550387353
0.12600000000000006,5114.242913514799,4.174263299861826,3587355.7030131565,278.61043662723034,2926.0785870989516,56.43581595005486,1.9216485556423843,0.00015902488531587184
0.13300000000000006,5120.269865984417,4.177760770525574,3586981.796970097,278.6062209473755,2927.074332214713,56.41720724693977,1.9219638254008404,0.00016658616540279894
0.14000000000000007,5124.462352828423,4.181216651720727,3586608.320506086,278.6020097870077,2928.042373412417,56.3986235641116,1.922278633758183,0.00017413689653382607
0.14700000000000008,5127.3544354893165,4.1846410688690066,3586235.1347336634,278.5978015809716,2928.990197499226,56.38005830958043,1.9225931057856869,0.00018167914207730285
0.15400000000000008,5129.3251027496035,4.1880422860585345,3585862.1410342595,278.5935952177718,2929.9234184835777,56.3615068032634,1.9229073302404922,0.00018921436821561484
0.1610000000000001,5130.6431306937975,4.191426712734961,3585489.2694365503,278.58938990867216,2930.846172757343,56.342965725030105,1.9232213700562728,0.00019674361618580673
0.1680000000000001,5131.499050256926,4.194799170445468,3585116.4703223086,278.58518509426625,2931.7614723630973,56.3244327208035,1.9235352698263497,0.00020426762530934765
0.1750000000000001,5132.027884890413,4.198163216628312,3584743.7085203985,278.5809803779438,2932.671493112595,56.30590612210762,1.9238490611298902,0.00021178692063501093
0.2150000000000001,5132.3253018324385,4.201521442814135,3584370.9591080137,278.5767754785861,2933.5777981104206,56.28738474671371,1.9241627663170138,0.00021930187525518062
0.2550000000000001,5127.513921396674,4.208482550081039,3582238.0196233303,278.5527080739437,2935.4056914320627,56.18158610873037,1.9259547680135003,0.00026219209220983283
0.2950000000000001,5125.558204161901,4.226810693634024,3580102.7268035966,278.5286035160985,2940.317123520375,56.07582787394398,1.927746414205638,0.0003049816365708572
0.3350000000000001,5124.188069373545,4.245619592081246,3577965.6978509314,278.5044687313221,2945.3622187877045,55.97013910281387,1.9295371379343518,0.00034766216561960635
0.37500000000000006,5122.644366426367,4.265009399006809,3575827.154430003,278.4803061880681,2950.560662890401,55.86453012571624,1.9313267276790123,0.00039023119241077205
0.41500000000000004,5121.3341334988445,4.284024850936815,3573686.9788488243,278.45611452233226,2955.6595393931357,55.75899530610503,1.9331152748999396,0.0004326911744564074
0.455,5119.8807689672,4.303421359182998,3571545.285838713,278.4318949966366,2960.8582356546804,55.65353992675625,1.934902664175311,0.0004750411840209069
0.495,5118.609002887117,4.322531283443094,3569401.9816847406,278.4076465169181,2965.980534650684,55.54815949700166,1.9366889655774564,0.0005172833025010213
0.535,5116.298405254896,4.34193823454849,3567257.153608891,278.3833700355609,2970.1888023916326,55.442858004700525,1.938474088596292,0.0005594169910558143
0.5750000000000001,5113.20775881614,4.36163874704285,3565110.7309942213,278.35906471891064,2974.0320652748055,55.33763205824072,1.9402580827958282,0.0006014439723735094
0.6150000000000001,5110.176982340628,4.381034400487067,3562962.5306830555,278.3347284565876,2977.8148363209575,55.232473046846195,1.942041096806978,0.0006433675486983968
0.6550000000000001,5107.099411283579,4.400563042776772,3560812.5830040015,278.31036155456087,2981.6221211827346,55.12738233993715,1.943823090218756,0.000685187949748657
0.6950000000000002,5104.087666830379,4.420023359295065,3558660.859047822,278.28596364748387,2985.4155291266115,55.022358551718234,1.945604074995377,0.0007269062401425027
0.7350000000000002,5101.052645380336,4.439589302225357,3556507.38533408,278.26153499824574,2989.2283068193374,54.91740287851609,1.947384014316247,0.0007685226893308537
0.7750000000000002,5098.065940212416,4.459121181192418,3554352.144063481,278.23707536709526,2993.033775825172,54.81251446088865,1.9491629104675268,0.0008100381861175638
0.8150000000000003,5095.06974163041,4.478732455229232,3552195.1530876597,278.2125849186955,2996.8536013067137,54.70769409665557,1.9509407344803689,0.0008514531085833
0.8550000000000003,5092.11028145467,4.498331805400451,3550036.40141199,278.18806349023697,3000.6703565862217,54.60294125030832,1.9527174827920226,0.0008927682327700418
0.8950000000000004,5089.150195276452,4.517993413711688,3547875.901154036,278.1635111813006,3004.498196852524,54.49825645882491,1.9544931316651846,0.0009339840032334668
0.9350000000000004,5086.219252820466,4.5376577849932955,3545713.6457131035,278.13892787875795,3008.3257776220753,54.393639397406375,1.9562676738260958,0.0009751011186111657
0.9750000000000004,5083.293351173724,4.557373327915787,3543549.643428669,278.1143136392234,3012.1623299098155,54.28909043365471,1.9580410890255793,0.0010161200621699145
1.0150000000000003,5080.391599702132,4.577101403420095,3541383.890516532,278.0896683813932,3016.000492138955,54.18460937955538,1.9598133676716754,0.00105704147826516
1.0550000000000004,5077.49847478247,4.596873551487394,3539216.3928196803,278.0649921334167,3019.846274880964,54.0801964930509,1.9615844918624503,0.0010978658709466416
1.0950000000000004,5074.626200965341,4.616664765138503,3537047.1483401735,278.04028483413987,3023.694917852425,53.97585167472363,1.9633544505927514,0.0011385938454246563
1.1350000000000005,5071.618757991351,4.63649557238577,3534876.161262098,278.0155464927306,3027.167924080462,53.87157511173143,1.9651232275626278,0.001179225915029027
1.1750000000000005,5068.158313491695,4.656498448640175,3532703.4307031026,277.990777060575,3029.819269899661,53.76736676193006,1.9668908109392222,0.0012197626557464995
1.2150000000000005,5064.481137538454,4.6766538061838565,3530528.890221806,277.9659757410524,3032.4874592811875,53.6632235956769,1.968657245522642,0.0012602055258964962
1.2550000000000006,5060.962654337594,4.69652277986124,3528352.435266931,277.9411413011132,3035.1180569195208,53.559140866967134,1.9704226086553709,0.0013005564810017675
1.2950000000000006,5057.345152054545,4.716654896979927,3526174.1381265195,277.9162745246352,3037.7818208813865,53.455121904511785,1.9721868250560213,0.0013408150681817105
1.3350000000000006,5053.824198178983,4.736645127272081,3523993.945039328,277.89137475696947,3040.426705946725,53.351164295064464,1.9739499281538606,0.0013809825344452203
1.3750000000000007,5050.252309385533,4.756801373869134,3521811.897799548,277.8664424343171,3043.092267957762,53.247269977131225,1.975711869205311,0.0014210588312558602
1.4150000000000007,5046.7402765955285,4.776891048035333,3519627.9660043614,277.84147716814823,3045.7485225205787,53.143437610573024,1.977472661564087,0.0014610448751332188
1.4550000000000007,5043.204758732881,4.797090397216225,3517442.173571351,277.81647919057156,3048.4166049342775,53.039668323396,1.9792322720423918,0.0015009408482039967
1.4950000000000008,5039.70759245053,4.8172672130468195,3515254.503400999,277.7914482646722,3051.0811490251886,52.93596138718185,1.9809907026448859,0.0015407474749787443
1.5350000000000008,5036.202541590665,4.837520738293194,3513064.968917052,277.766384502551,3053.754868565163,52.83231745772259,1.9827479293301238,0.0015804650673622697
1.5750000000000008,5032.724073299542,4.857776961195755,3510873.560742565,277.7412877553021,3056.428289931959,52.728736162840406,1.9845039475816064,0.001620094234412553
1.6150000000000009,5029.246215073495,4.878091967937612,3508680.286518179,277.7161580687397,3059.1085911953637,52.62521790105725,1.9862587384315988,0.0016596353541432514
1.655000000000001,5025.788180813887,4.898424014747047,3506485.1410366623,277.69099534142305,3061.7904333576807,52.52176249434006,1.98801229390203,0.00169908896860829
1.695000000000001,5022.335443805506,4.918804824560992,3504288.128610033,277.66579958088624,3064.477873644635,52.418370195665645,1.9897645979795944,0.0017384554890528957
1.735000000000001,5018.7610901369,4.939211011766725,3502089.246338338,277.64057071187995,3066.8349464015555,52.31504093634075,1.9915156408220407,0.0017777354159210774
1.775000000000001,5014.517454924187,4.9600879948309355,3499888.496612426,277.6153087197298,3068.572418204848,52.21177488764522,1.9932654081573833,0.0018169291750793088
1.815000000000001,5009.736085063365,4.981260376338055,3497685.6875823615,277.59001135849695,3070.326629984552,52.108563543591444,1.995014049419072,0.0018560397030138065
1.855000000000001,5005.294390666784,5.0016968265194635,3495480.5648459136,277.5646756591736,3072.02146487572,52.005395657373576,1.996761765643128,0.0018950707081202185
1.8950000000000011,5000.658091717732,5.022659647664577,3493273.2857719082,277.5393033815191,3073.757843757679,51.90227839550439,1.998508410737975,0.0019340205536011144
1.9350000000000012,4996.156347138781,5.043362832559747,3491063.7506428594,277.51389333130146,3075.472922823469,51.79920744841698,2.000254055045425,0.001972890921829567
1.9750000000000012,4991.586566017545,5.064293089301251,3488852.0183864273,277.48844613774065,3077.2056026319474,51.69618558272353,2.0019986356216912,0.0020116814453994486
2.015000000000001,4987.07285568201,5.085150467279578,3486638.05012096,277.4629613050501,3078.9319162744173,51.5932112127141,2.0037421716149706,0.0020503930090719187
2.055000000000001,4982.539105366118,5.106120030091743,3484421.866958237,277.4374390275358,3080.6666452239238,51.490285422768245,2.0054846319547606,0.002089025724293591
2.095000000000001,4978.031608534506,5.127088547142181,3482203.4531441205,277.41187907496544,3082.400747430321,51.38740766299712,2.007226016428354,0.0021275801687451546
2.135000000000001,4973.52201412909,5.148125793313427,3479982.815365136,277.3862814753672,3084.1397920365544,51.28457838108491,2.0089663061187077,0.0021660566297638994
2.175000000000001,4969.027381735071,5.169189546576886,3477759.946525473,277.3606460977942,3085.880409098715,51.18179741705657,2.01070549362378,0.0022044555651293796
2.215000000000001,4964.537216027923,5.190305957991607,3475534.8478175066,277.3349729066598,3087.6246841398884,51.07906497995495,2.0124435646731573,0.0022427773232427135
2.2550000000000012,4960.0577037556195,5.211459541428809,3473307.515308089,277.30926180708514,3089.3713814470752,50.97638105506581,2.014180509280545,0.0022810223127626653
2.2950000000000013,4955.584959876546,5.232660105640519,3471077.9480716917,277.2835127387098,3091.121282304934,50.87374576281782,2.01591631499147,0.002319190900141682
2.3350000000000013,4951.657464864231,5.25390213161768,3468846.1432717973,277.2577256189285,3092.176452105736,50.77115914202482,2.017650970958371,0.0023572834714863248
2.3750000000000013,4947.584114128445,5.275422649490936,3466612.099128902,277.23190037715557,3093.1817197958912,50.668621280485354,2.0193844654842406,0.0023953003954202486
2.4150000000000014,4943.613915756418,5.296698703742345,3464375.714057929,277.20603578806447,3094.175778455983,50.56612790188574,2.021116868885717,0.002433243271492665
2.4550000000000014,4939.599549979032,5.318174291914211,3462137.035778416,277.18013235194263,3095.1783598714833,50.463681279835015,2.022848128500565,0.0024711118382848385
2.4950000000000014,4935.624749167683,5.33960765735536,3459896.033215552,277.15418965761216,3096.178784631172,50.36128024050902,2.0245782564747645,0.00250890680700213
2.5350000000000015,4931.64201685845,5.361136683324832,3457652.719868986,277.1282078094421,3097.183140358231,50.258925561496625,2.0263072283845145,0.0025466283339436653
2.5750000000000015,4927.678026733782,5.382683487742358,3455407.0838750247,277.1021866179855,3098.1879877809,50.156616915517034,2.0280350406067105,0.002584276883941835
2.6150000000000015,4923.717665365676,5.404292587956377,3453159.1276138597,277.0761260585528,3099.1952914190265,50.05435459880478,2.02976167788357,0.0026218527428985227
2.6550000000000016,4919.769292689858,5.425939276496594,3450908.8453460266,277.05002601215875,3100.2039598879733,49.95213855657831,2.0314871316035656,0.002659356292273347
2.6950000000000016,4915.828125658418,5.447637879612789,3448656.2358017024,277.0238864114191,3101.214624729228,49.84996893085819,2.0332113895269037,0.002696787855085912
2.7350000000000017,4911.896928661361,5.469380782510361,3446401.295115685,276.9977071586313,3102.224680805079,49.74784575346461,2.034934441540071,0.0027341477821465703
2.7750000000000017,4907.973542491161,5.491173208178296,3444144.0207805447,276.9714881716296,3103.236498726388,49.64576911754905,2.0366562764402025,0.0027714364040114002
2.8150000000000017,4904.059425133123,5.513011668991245,3441884.4092189977,276.94522935560394,3104.2500419660773,49.54373907244511,2.038376883903901,0.002808654060437716
2.8550000000000018,4900.153696005741,5.5348989568167895,3439622.457606462,276.91893062426414,3105.2654324770033,49.44175570247498,2.0400962530106423,0.0028458010784127605
2.895000000000002,4895.889172249153,5.556833960759848,3437358.1626175367,276.8925918852754,3105.760187240788,49.33981907278546,2.0418143732559244,0.0028828777873051853
2.935000000000002,4891.277154653831,5.579214745270799,3435091.521112836,276.8662130482386,3106.2223534350032,49.23792925897934,2.043531233995829,0.002919884510645467
2.975000000000002,4886.820379760567,5.601165477907474,3432822.3679777225,276.83979213610814,3106.6762896638365,49.13607939276803,2.0452469543990253,0.0029568234915380697
3.015000000000002,4882.297381380106,5.623400505360626,3430550.77677014,276.8133299489505,3107.135465420804,49.034272868936604,2.046961461786042,0.0029936941215723606
3.055000000000002,4877.817116299072,5.645570825639369,3428276.705347551,276.7868259395343,3107.593321065149,48.932508118172834,2.048674776313147,0.003030497165342255
3.095000000000002,4873.325965605019,5.667849251653012,3426000.168499459,276.7602802235249,3108.053104235347,48.830786014109464,2.0503868725426573,0.0030672327086762622
3.135000000000002,4868.8500399583645,5.690151085430447,3423721.1529125227,276.73369258882195,3108.5132210681913,48.72910623002297,2.0520977475057687,0.0031039011663870335
3.175000000000002,4864.37651203074,5.712518317518165,3421439.6589534855,276.70706298256584,3108.974461095565,48.62746902644838,2.0538073873183356,0.0031405027885908388
3.215000000000002,4859.911492267438,5.7349308683357085,3419155.6802210393,276.6803912726814,3109.4364453318403,48.52587437759783,2.055515783487857,0.003177037901654115
3.255000000000002,4855.451921433511,5.757398943170192,3416869.213510966,276.6536773641388,3109.8993652993177,48.42432239648004,2.0572229249797247,0.0032135067911579426
3.295000000000002,4850.9991629683545,5.7799180360135995,3414580.253980389,276.6269211425043,3110.363135191912,48.322813128904194,2.0589288020589556,0.003249909758571876
3.335000000000002,4846.552457968689,5.802490758957308,3412288.7974844514,276.60012250122577,3110.8278034689815,48.22134665287934,2.0606334044360235,0.003286247093991989
3.375000000000002,4842.112063217265,5.825116297130727,3409994.8394520553,276.573281328494,3111.2933538947586,48.119923030863035,2.0623367221561213,0.0033225190892628848
3.4150000000000023,4835.372919659675,5.847795480874473,3407698.3754244666,276.5463975135356,3111.589509396853,48.01854233260926,2.0640387451727276,0.0033587260317518293
3.4550000000000023,4825.331135233727,5.8706429275852745,3405399.4007983897,276.5194709436055,3111.6447582004844,47.91720462428998,2.065739463549466,0.003394868207351697
3.4950000000000023,4815.295054644627,5.893563838791754,3403097.8659434454,276.4925009779053,3111.698769388787,47.81590807972408,2.0674389025701045,0.003430946413617645
3.5350000000000024,4805.423310885697,5.916407661120356,3400793.7258410933,276.4654870283828,3111.7528638470203,47.714651080142815,2.06913708364607,0.003466961386507991
3.5750000000000024,4795.606840341508,5.939374805121613,3398486.997940288,276.4384292386728,3111.80714414166,47.613434640371196,2.0708339792607475,0.0035029131436038656
3.6150000000000024,4785.893605674877,5.962367847395527,3396177.667170725,276.41132737089924,3111.861505357036,47.512258409783385,2.072529587316845,0.0035388020710176893
3.6550000000000025,4776.261425355118,5.985429884642908,3393865.732745073,276.3841813543947,3111.915998234516,47.41112264035639,2.074223894559687,0.003574628389157057
3.6950000000000025,4766.717990118345,6.008542961295167,3391551.187678116,276.3569910454582,3111.9706000750775,47.31002732666774,2.075916892552876,0.0036103923858941804
3.7350000000000025,4757.258485198923,6.031715115889916,3389234.027513974,276.3297563297721,3112.025320464397,47.20897257183352,2.0776085708825045,0.003646094317525181
3.7750000000000026,4747.883328425844,6.05494341742777,3386914.246643696,276.3024770791618,3112.0801550615247,47.10795843333786,2.07929892001802,0.0036817344504737766
3.8150000000000026,4738.590796656889,6.0782295376757025,3384591.8398487675,276.27515316972426,3112.1351054872407,47.00698498756832,2.0809879301142775,0.00371731304389377
3.8550000000000026,4729.38007197272,6.101573231014161,3382266.801657753,276.24778447426337,3112.190170832401,46.90605230296619,2.082675591508787,0.0037528303569318642
3.8950000000000027,4720.249985267441,6.124975048645196,3379939.1266127108,276.2203708654193,3112.245133719318,46.80516045113913,2.084361894515095,0.003788286645759989
