time,thrust,OF,ox_tank.pressure,ox_tank.temperature,combustion_chamber.temperature,propellant_mass,propellant_CG,combustion_chamber.fuel_grain.geometry.length_regressed
0.007,235.69511725018373,14.70368572183881,4947137.746305354,292.157288190185,2533.0173935389853,54.11384891936811,1.8353097242552878,4.370653464453317e-06
0.014,641.236829301793,14.153531892086686,4945927.4699634975,292.1465613616966,2636.8164453174913,54.080992713250254,1.8361826930034286,8.730348535320535e-06
0.021,1531.200346979674,13.891469839987995,4944765.314625226,292.13625914591614,2677.600137368948,54.04941794616699,1.8370194043878045,1.300107911324106e-05
0.028,2281.2593359298635,13.66175549618495,4943647.884526135,292.12635166167325,2703.7829178901866,54.019034477032044,1.8378224633973625,1.7187476883947485e-05
0.035,2907.4585135284165,13.46017279152482,4942570.572381998,292.11679825404417,2722.9735522095048,53.98972016962935,1.8385953546936065,2.1296749827154483e-05
0.042,3426.8746186083886,13.285520857465691,4941528.655696329,292.10755721190657,2737.8137865059966,53.9613498459379,1.8393416315933209,2.5336717858643916e-05
0.049,3855.4447486007016,13.136147984481564,4940517.552957671,292.09858804231897,2749.602698834173,53.933802054764435,1.8400647282386284,2.9315308398384947e-05
0.056,4207.4904018787,13.00991146876094,4939532.960883701,292.0898526913149,2759.0649924445693,53.90696270359031,1.8407678602646456,3.324024393360283e-05
0.063,4495.542475965886,12.904371014532044,4938570.938147022,292.08131629049734,2766.709116604302,53.880727279271824,1.8414539652040922,3.711881747930794e-05
0.07,4730.419755700434,12.816984038943266,4937627.9503484275,292.0729475599569,2772.869475104291,53.855002045032165,1.8421256714731682,4.095773982206592e-05
0.07700000000000001,4921.391615971579,12.745254212164603,4936700.884479172,292.0647189403391,2777.8532961996125,53.82970442964637,1.842785289691099,4.476305075406567e-05
0.08400000000000002,5076.251452643012,12.686853626440021,4935787.040807996,292.0566065242917,2781.8676514015797,53.80476281758937,1.8434348203880575,4.85400834574929e-05
0.09100000000000003,5201.528517460028,12.639657653349447,4934884.107894803,292.0485898377781,2785.0855255998367,53.780115890614425,1.844075973853912,5.229347283158933e-05
0.09800000000000003,5302.66157396759,12.601802298960822,4933990.129364602,292.0406515478385,2787.6608770033745,53.755711749326274,1.8447101957787042,5.6027190390261585e-05
0.10500000000000004,5384.148549271403,12.5716723412854,4933103.464523371,292.0327771152659,2789.714806120428,53.73150687025087,1.845338697165198,5.974460058371471e-05
0.11200000000000004,5449.689514501588,12.547894109008677,4932222.748262103,292.02495444056535,2791.34011678952,53.70746504301351,1.8459624845468277,6.344852585011324e-05
0.11900000000000005,5502.312036600909,12.529314030557297,4931346.852160505,292.01717352020285,2792.6226458282554,53.68355633866672,1.8465823891416981,6.714131485744227e-05
0.12600000000000006,5544.486738594298,12.514971262570642,4930474.848411891,292.0094261275878,2793.6314118908613,53.659756152452886,1.8471990937869316,7.082490912143589e-05
0.13300000000000006,5578.2249323600545,12.504072118704055,4929605.977547011,292.00170552751797,2794.4132568011732,53.63604434712563,1.847813156967938,7.450090475488257e-05
0.14000000000000007,5605.157217584303,12.495965613343445,4928739.620149816,291.99400622584693,2795.011505273542,53.61240450210383,1.848425033827298,7.817060800729203e-05
0.14700000000000008,5626.603332407255,12.490119344953728,4927875.272472266,291.9863237535908,2795.465448105947,53.58882326608391,1.8490350942430072,8.183508409352064e-05
0.15400000000000008,5643.6311482229485,12.486099346191079,4927012.525803261,291.9786544842236,2795.80281819759,53.56528980930298,1.8496436381002892,8.549519911283837e-05
0.1610000000000001,5657.102753062732,12.483553395335454,4926151.049195254,291.97099548067246,2796.046124199239,53.5417953649551,1.8502509080612783,8.915165554283523e-05
0.1680000000000001,5667.7138072680245,12.482196076729082,4925290.575079589,291.96334436787225,2796.213806932074,53.518332847329255,1.8508571001865504,9.280502205856314e-05
0.1750000000000001,5676.024008476376,12.481796399206482,4924430.887394976,291.95569922756636,2796.320337047655,53.494896536694185,1.8514623726919384,9.645575830961379e-05
0.1820000000000001,5682.483989417534,12.482167988268486,4923571.811851328,291.9480585120137,2796.377442859126,53.471481820894745,1.8520668531237054,0.00010010423534808171
0.1890000000000001,5687.456940694804,12.483160479914718,4922713.207953949,291.94042097328594,2796.3948824696126,53.448084983701975,1.8526706442311918,0.00010375075243263424
0.19600000000000012,5691.235479132671,12.484652515948449,4921854.962511932,291.93278560571224,2796.3807092144307,53.42470303257835,1.8532738287428532,0.00010739555074925508
0.20300000000000012,5694.054079585897,12.486546198716239,4920996.984378785,291.92515159924193,2796.3409514388463,53.401333559156875,1.8538764732330193,0.0001110388245553699
0.21000000000000013,5696.101487166933,12.48876291054546,4920139.200196006,291.9175183016956,2796.280625823051,53.377974626348525,1.8544786312490797,0.00011468073021602756
0.21700000000000014,5697.529395508975,12.491239320020773,4919281.550929657,291.9098851880438,2796.203770822877,53.35462467650142,1.8550803458541916,0.00011832139356752306
0.22400000000000014,5698.459697769858,12.493924475013491,4918423.989080712,291.90225183565883,2796.11363447797,53.33128245744143,1.855681651674032,0.00012196091585505009
0.23100000000000015,5698.990326677433,12.49677739474534,4917566.476434157,291.89461790434336,2796.0128283487734,53.307946962807534,1.8562825765472581,0.0001255993785276807
0.23800000000000016,5699.199955276076,12.49976512577675,4916708.982244309,291.8869831202271,2795.903451756181,53.28461738396195,1.8568831428552433,0.00012923684710626647
0.27800000000000014,5699.151778770776,12.502861174323863,4915851.481772998,291.879347262793,2795.7871919445784,53.26129307125772,1.8574833685926473,0.00013287337430067486
0.3180000000000001,5693.482385182465,12.506193247142747,4910942.979981753,291.8356185151387,2795.6003560143276,53.128042371635615,1.8609090825631953,0.00015363847538996553
0.3580000000000001,5687.947946309615,12.52581135138803,4906031.132140418,291.7918265258914,2794.8064214739816,52.99488222348336,1.8643259265193133,0.00017437943330344524
0.3980000000000001,5681.564288103518,12.54655075257302,4901116.053326813,291.74797220090585,2793.9614757522545,52.86181641955863,1.8677338166683546,0.00019509600865208015
0.43800000000000006,5675.253139628386,12.566733752042271,4896197.3457127,291.70405186714834,2793.138337380042,52.72883532679863,1.8711330350400943,0.00021578904211510795
0.47800000000000004,5668.957548151814,12.58693153649227,4891275.013406451,291.6600654333784,2792.315035581875,52.59593985833985,1.8745235751722298,0.00023645852449434245
0.518,5662.657299378516,12.60713829615704,4886349.037960699,291.6160126062244,2791.4915665173226,52.463130336422125,1.8779054466323792,0.00025710449387913846
0.558,5656.355747072127,12.627338720786254,4881419.391854299,291.57189301011215,2790.668538835518,52.33040684742113,1.8812786652648532,0.00027772700700449797
0.5980000000000001,5650.053100858633,12.647534315248535,4876486.048982744,291.52770628094305,2789.8458986173587,52.197769516225215,1.884643245724033,0.000298326117178711
0.6380000000000001,5643.749203856643,12.667725323065966,4871548.983332081,291.483452054245,2789.023635077677,52.06521847160457,1.887999202418729,0.00031890187707255056
0.6780000000000002,5637.444019138034,12.687911634047433,4866608.168806032,291.43912996361775,2788.201751949649,51.9327538417586,1.8913465496342226,0.00033945433907955105
0.7180000000000002,5631.137509218196,12.708093203901024,4861663.579276235,291.3947396411747,2787.380250501166,51.800375755678374,1.8946853014968352,0.00035998355520906224
0.7580000000000002,5624.829633389252,12.728269991217807,4856715.188580452,291.35028071751907,2786.5591318595,51.6680843431506,1.8980154719752726,0.00038048957708845056
0.7980000000000003,5618.520351298083,12.748441951438389,4851762.97051921,291.3057528217059,2785.738397275329,51.53587973472233,1.901337074883032,0.00040097245596842267
0.8380000000000003,5612.209622697935,12.768609039145447,4846806.898854022,291.2611555812178,2784.918048034416,51.40376206170693,1.9046501238796618,0.0004214322427250077
0.8780000000000003,5605.899719502068,12.78877120802177,4841846.947305538,291.21648862194047,2784.099432932667,51.27173145618752,1.9079546324720802,0.0004418689878617187
0.9180000000000004,5599.601315582815,12.80892435581911,4836883.0895516565,291.1717515681371,2783.2869679650184,51.13978805101957,1.911250614015901,0.0004622827415117589
0.9580000000000004,5593.315333581921,12.82905805721548,4831915.300801734,291.1269440566444,2782.4755711489315,51.007932020283434,1.9145380806430303,0.00048267355020787327
0.9980000000000004,5587.026264539874,12.849196461420696,4826943.561037378,291.0820657661848,2781.6641835999676,50.8761636620938,1.9178170410791773,0.0005030414502791909
1.0380000000000005,5580.7352339252975,12.869329232742752,4821967.843209283,291.03711631086026,2780.8531994290934,50.744483095709526,1.9210875086856403,0.0005233864920606346
1.0780000000000005,5574.442526907151,12.88945656050806,4816988.120704787,290.99209530743576,2780.0426147171984,50.61289045369913,1.9243494963436731,0.0005437087245227666
1.1180000000000005,5568.14804230011,12.909578657806447,4812004.36701041,290.94700237229324,2779.232420545711,50.48138587329104,1.9276030166868179,0.0005640081959666474
1.1580000000000006,5561.851736310829,12.929695441353537,4807016.555531874,290.9018371197974,2778.422619561374,50.34996949181206,1.9308480822231284,0.000584284954390586
1.1980000000000006,5555.5536739039335,12.94980685225123,4802024.659617327,290.85659916249614,2777.612518046522,50.21864144733357,1.9340847053193413,0.0006045390474407544
1.2380000000000007,5549.253594679693,12.9699131564746,4797028.6525582075,290.8112881111188,2776.8017781457147,50.08740187874506,1.9373128982002223,0.0006247705224075409
1.2780000000000007,5542.951206755305,12.990014261370945,4792028.507462787,290.76590357341865,2775.991426164424,49.956250922598755,1.9405326730323533,0.0006449794264789854
1.3180000000000007,5536.64688051983,13.01010955799001,4787024.197330118,290.7204451548305,2775.1814886485363,49.825188715056875,1.9437440418738066,0.0006651658065873539
1.3580000000000008,5530.340540698922,13.0301992733891,4782015.695285029,290.6749124605965,2774.371956442131,49.69421539789495,1.94694701651874,0.0006853297089335457
1.3980000000000008,5524.032138726304,13.05028333912428,4777002.9743719725,290.6293050938866,2773.5628315899503,49.56333111331228,1.9501416086347436,0.0007054711794028249
1.4380000000000008,5517.721636247194,13.07036168766546,4771986.007564209,290.5836226558715,2772.754116214939,49.43253600421729,1.9533278297565717,0.0007255902635441799
1.4780000000000009,5511.410791992268,13.0904342585934,4766964.767766644,290.5378647457381,2771.9470886590675,49.3018302143528,1.956505691284097,0.0007456870065624532
1.518000000000001,5505.109083557569,13.110497317553458,4761939.227813209,290.4920309606552,2771.146546466486,49.17121388828106,1.9596752044839099,0.0007657614533216107
1.558000000000001,5498.8187338879015,13.130539596194238,4756909.36187692,290.4461209086384,2770.3471032425623,49.04068720682032,1.9628363795762815,0.0007858136455342409
1.598000000000001,5492.524731211544,13.1505857787126,4751875.149068869,290.4001342414807,2769.5476962060843,48.91025047699715,1.9659892234287304,0.0008058436146342183
1.638000000000001,5486.22811207814,13.170625442478975,4746836.561427774,290.3540705450803,2768.748717237419,48.779903830662,1.969133747333873,0.0008258514057031351
1.678000000000001,5479.929162068498,13.190658721207827,4741793.571378258,290.30792940744,2767.950164556848,48.649647412189566,1.9722699621525004,0.0008458370625593361
1.718000000000001,5473.627782753564,13.210685821192413,4736746.151420892,290.2617104158339,2767.1520296328335,48.51948137071074,1.9753978785165098,0.0008658006283776781
1.7580000000000011,5467.323929656104,13.230706644451237,4731694.273947264,290.21541315510603,2766.35431562259,48.38940585553044,1.978517506948105,0.0008857421460551608
1.7980000000000012,5461.017564419272,13.250721115880303,4726637.911262403,290.1690372078639,2765.5570249144494,48.25942101674324,1.9816288578450874,0.0009056616581639965
1.8380000000000012,5454.708646609851,13.270729165766742,4721577.035585886,290.1225821544764,2764.760159679136,48.12952700531382,1.9847319414799416,0.0009255592069471593
1.8780000000000012,5448.397135758647,13.290730722047035,4716511.61904888,290.0760475730353,2763.9637221740672,47.9997239730572,1.987826768001474,0.0009454348343218554
1.9180000000000013,5442.082991414143,13.310725711453996,4711441.633692154,290.02943303932454,2763.167714702018,47.870012072642645,1.990913347435838,0.0009652885818810965
1.9580000000000013,5435.766173077118,13.330714059629154,4706367.0514640985,289.9827381267899,2762.372139606298,47.740391457598484,1.9939916896875436,0.0009851204908951862
1.9980000000000013,5429.446640201339,13.350695691071497,4701287.844218723,289.9359624065081,2761.5769992725977,47.61086228231623,1.9970618045404553,0.0010049306023132418
2.038000000000001,5423.124352191954,13.370670529129288,4696203.983713601,289.88910544715526,2760.782296129242,47.481424702054824,2.000123701658803,0.0010247189567646915
2.078000000000001,5416.800022918803,13.390638495992754,4691115.441607909,289.842166814976,2759.9886788890767,47.35207887294488,2.003177390588169,0.001044485594560746
2.118000000000001,5410.482106697083,13.410597714981705,4686022.189460285,289.7951460737507,2759.202308281704,47.22282495199312,2.006222880756477,0.00106423055569585
2.1580000000000013,5404.175770735432,13.430532205869422,4680924.199411903,289.7480427910964,2758.4171661956902,47.09366311387167,2.00926018105421,0.0010839538785251126
2.1980000000000013,5397.865123815153,13.450470479797259,4675821.4498985065,289.7008565913216,2757.6320365389934,46.9645936905593,2.0122892963457986,0.0011036555887585062
2.2380000000000013,5391.551406492457,13.470401104323463,4670713.911572178,289.6535870253122,2756.8456265309087,46.83561682630124,2.0153102361244577,0.0011233357266862256
2.2780000000000014,5385.233985624214,13.490325056902437,4665601.555440128,289.6062336456413,2756.0596374500574,46.70673267763729,2.0183230094824665,0.001142994331386561
2.3180000000000014,5378.913547788755,13.510241091898383,4660484.35222833,289.5587960006713,2755.274121635625,46.57794139787745,2.0213276255011614,0.0011626314419523357
2.3580000000000014,5372.589996627237,13.530149659237976,4655362.272905825,289.5112736393998,2754.489061898549,46.44924314993099,2.024324092932511,0.0011822470964818622
2.3980000000000015,5366.263274796274,13.550050659716788,4650235.288301775,289.46366610790153,2753.704461272938,46.320638097002444,2.027312420432808,0.0012018413328143763
2.4380000000000015,5359.933343822173,13.569943990430875,4645103.369120286,289.4159729494506,2752.9203231281467,46.19212640301152,2.0302926165531967,0.0012214141884985532
2.4780000000000015,5353.6001624583405,13.58982956307155,4639966.485947688,289.36819370457323,2752.136650278682,46.06370823282796,2.033264689734891,0.0012409657007756538
2.5180000000000016,5347.263689054967,13.609707286820788,4634824.609249104,289.32032791100113,2751.3534456261023,45.935383752245485,2.036228648310872,0.0012604959065832036
2.5580000000000016,5340.923881975011,13.62957706924201,4629677.709366072,289.27237510363386,2750.5707121312844,45.807153127982865,2.039184500506915,0.0012800048425565247
2.5980000000000016,5334.580699488574,13.64943881668461,4624525.756514415,289.22433481450383,2749.78845279869,45.679016527690216,2.042132254442484,0.0012994925450298376
2.6380000000000017,5328.234099766255,13.66929243421328,4619368.720782023,289.1762065727399,2749.0066706788075,45.55097411995422,2.0450719181316477,0.0013189590500374366
2.6780000000000017,5321.884040879106,13.689137825590624,4614206.572126631,289.12798990453075,2748.22536886875,45.423026074303266,2.048003499483997,0.0013384043933148493
2.7180000000000017,5315.537158852377,13.708974893268662,4609039.280373527,289.07968433308764,2747.451389855384,45.29517256121282,2.0509270063055585,0.0013578286102999726
2.758000000000002,5309.201198633626,13.728784961012227,4603866.81521334,289.03128937860714,2746.679367913367,45.16741375211076,2.0538424462997047,0.0013772317361341881
2.798000000000002,5302.861738672814,13.748595491199191,4598689.153224057,288.9828046240384,2745.9075095451235,45.03974998688311,2.0567498229980576,0.0013966137925291134
2.838000000000002,5296.5181908748555,13.768398053767783,4593506.263951614,288.93422958483615,2745.1361090208475,44.91218144112995,2.0596491438707245,0.0014159748138782582
2.878000000000002,5290.170956248133,13.78819153267499,4588318.116483849,288.88556377036014,2744.3652103572667,44.78470828387331,2.0625404164709322,0.001435314834873348
2.918000000000002,5283.819971130124,13.807976146143107,4583124.679988521,288.8368066888988,2743.5948051926925,44.65733069044697,2.065423648122905,0.0014546338894948832
2.958000000000002,5277.465181709574,13.827751791126708,4577925.923477965,288.7879578454482,2742.8248967116024,44.530048836939095,2.068298846058162,0.001473932011449651
2.998000000000002,5271.106546512065,13.84751835119271,4572721.81581047,288.7390167417072,2742.0554887040457,44.40286290028753,2.071166017414195,0.0014932092341646795
3.038000000000002,5264.74402262527,13.86727571869695,4567512.325694231,288.6899828760962,2741.2865846327004,44.27577305843765,2.074025169231696,0.0015124655907763022
3.078000000000002,5258.377566751762,13.887023784093318,4562297.421684295,288.64085574371046,2740.5181880244413,44.14877949033324,2.0768763084558173,0.0015317011141322964
3.118000000000002,5252.007135514458,13.906762436157674,4557077.072180012,288.5916348362773,2739.7503024655,44.02188237591937,2.0797194419371454,0.0015509158367930694
3.158000000000002,5245.6326853974915,13.926491562264422,4551851.24542257,288.5423196421144,2738.9829315909724,43.895081896149165,2.082554576432581,0.0015701097910325254
3.198000000000002,5239.254172738417,13.946211048343377,4546619.909492537,288.4929096460874,2738.2160790862367,43.76837823299001,2.085381718606237,0.001589283008838964
3.238000000000002,5232.8717641015155,13.965920778861143,4541383.032307329,288.44340432956665,2737.4481577586666,43.64177156942975,2.0882008750303407,0.0016084355219159647
3.2780000000000022,5226.484600482852,13.985621521415505,4536140.581618681,288.3938031703839,2736.680503956803,43.51526208948299,2.0910120521861297,0.0016275673616832488
3.3180000000000023,5220.0971583437495,14.005311880029613,4530892.524677265,288.34410563963485,2735.918170202106,43.3888499704438,2.0938152566483583,0.0016466785598829063
3.3580000000000023,5213.716876963379,14.024979326843976,4525638.828876267,288.29431120774797,2735.1597289936944,43.26253539798936,2.0966104947275888,0.0016657691474006853
3.3980000000000024,5207.3368279218,14.044636426385518,4520379.466258602,288.2444193872524,2734.401872457382,43.136318670788654,2.099397770005813,0.00168483914610606
3.4380000000000024,5200.95174665691,14.064287281160123,4515114.406344933,288.1944296648332,2733.644401219408,43.01020003338212,2.102177087297549,0.0017038885819061981
3.4780000000000024,5194.562172312007,14.083927282368142,4509843.615709,288.1443414971762,2732.887483036565,42.884179666933505,2.10494845285509,0.001722917485460047
3.5180000000000025,5188.168162928784,14.103556546054305,4504567.061036451,288.0941543399374,2732.131114514895,42.75825776049295,2.1077118726837503,0.0017419258866146457
3.5580000000000025,5181.769648031885,14.123175054990982,4499284.708885521,288.04386764545444,2731.3752956035655,42.63243450548907,2.110467352673407,0.0017609138148366478
