time,thrust,OF,ox_tank.pressure,ox_tank.temperature,combustion_chamber.temperature,propellant_mass,propellant_CG,combustion_chamber.fuel_grain.geometry.length_regressed
0.007,251.88831466415067,4.774989636831803,5147306.348067927,293.9043561407037,2919.0969551315534,56.67735074565691,1.8194709730355763,1.477481690378658e-05
0.014,1303.4701812533935,4.498137933519628,5145990.552598207,293.89304390336855,3031.294665425204,56.63770746431588,1.8203213196874892,2.9472699125857695e-05
0.021,2700.3027093515825,4.444894987216837,5144758.105906279,293.8824462139805,3061.2326277049615,56.600510025062256,1.8211151810854085,4.34061187083021e-05
0.028,3806.982715748834,4.408653647726576,5143604.172766836,293.87252188030163,3074.0534942922504,56.56561893282736,1.8218560190304764,5.661157181475767e-05
0.035,4685.282377143755,4.3833895495019135,5142519.965940153,293.8631956592212,3080.7603569527582,56.53277900781485,1.822549897662625,6.916283159697662e-05
0.042,5390.670829870254,4.368006156299421,5141495.84209413,293.8543848724739,3085.1827359609265,56.50170938928007,1.8232034010448879,8.114369918526977e-05
0.049,5887.849500822166,4.360762392458203,5140522.1111002145,293.84600637272416,3088.803632619168,56.47212713205665,1.823823094551758,9.264064872387176e-05
0.056,6287.8679814468705,4.359691200692096,5139589.642786851,293.83798177204267,3092.155960502429,56.443765048081865,1.8244151275531373,0.00010373692177043655
0.063,6591.685675727994,4.362822593308514,5138690.245779227,293.8302407116829,3095.371313444405,56.416382968909076,1.8249849909162745,0.00011450851504684756
0.07,6818.566540932462,4.368456156142861,5137816.867512105,293.8227225935159,3098.4178892574614,56.38977379430733,1.8255373939895365,0.0001250217835391157
0.07700000000000001,6987.822018271264,4.3753382437198125,5136963.644609037,293.8153770231101,3101.2360350778713,56.36376513315892,1.8260762398971326,0.00013533250680863735
0.08400000000000002,7113.494677886275,4.382645196118733,5136125.837735713,293.8081632572438,3103.787412073837,56.33821751232723,1.8266046755863523,0.00014548615859902457
0.09100000000000003,7206.428442734494,4.389902610141667,5135299.701469177,293.8010490905337,3106.0715939099523,56.313020633270305,1.8271251829629758,0.00015551891036060677
0.09800000000000003,7274.90688214538,4.39687472012704,5134482.327502276,293.794009511009,3108.108555451324,56.28808880942549,1.8276396859947137,0.0001654589854175064
0.10500000000000004,7325.186849433175,4.403483682254667,5133671.48874063,293.7870253620216,3109.927091111953,56.26335640505589,1.8281496559587007,0.00017532807306270447
0.11200000000000004,7361.959868680651,4.4097338170089575,5132865.496796553,293.7800821183716,3111.5651603783335,56.238773652846504,1.8286562069442431,0.00018514265817239683
0.11900000000000005,7388.732819550058,4.415662955474725,5132063.081023858,293.77316884700997,3113.0599334871604,56.2143030968372,1.8291601765443029,0.00019491516933258727
0.12600000000000006,7408.117102347578,4.421322431982792,5131263.290892829,293.7662773680381,3114.441387149083,56.189916718091624,1.8296621907739716,0.00020465491579083487
0.13300000000000006,7422.049189828171,4.426765370448963,5130465.418645605,293.75940158983894,3115.7351453204024,56.165593655638716,1.8301627153788385,0.000214368835466302
0.14000000000000007,7431.961865125999,4.432038961408329,5129668.938980994,293.75253699048505,3116.961962208611,56.14131842833854,1.8306620957708,0.0002240620813066435
0.14700000000000008,7438.913490460129,4.437182532502535,5128873.462942521,293.74568022119644,3118.1381934551737,56.117079575087445,1.83116058751547,0.00023373847113095897
0.15400000000000008,7443.684907887171,4.44222760029919,5128078.703031543,293.73882880628014,3119.2764848042016,56.0928686259013,1.8316583793710102,0.00024340082875311898
0.1610000000000001,7446.851701711798,4.4471987865209055,5127284.447013646,293.73198091780716,3120.3864831127253,56.068679329373076,1.832155610569115,0.00025305124047734237
0.1680000000000001,7448.837882786894,4.452114997667331,5126490.538361137,293.7251352073504,3121.475477363732,56.04450707588337,1.8326523837071127,0.0002626912467766956
0.1750000000000001,7449.955660065422,4.456990579022502,5125696.861709357,293.71829068084236,3122.548937200319,56.02034846872686,1.8331487743279404,0.0002723219848930118
0.1820000000000001,7450.43484504388,4.46183632365168,5124903.332073312,293.7114466057766,3123.610946694688,55.996201006175056,1.8336448380184849,0.00028194429457846395
0.22200000000000011,7450.444559159387,4.466660303387727,5124109.8868695805,293.7046024425417,3124.66454439898,55.97206284629315,1.8341406156580917,0.00029155879631918093
0.2620000000000001,7440.743754446968,4.475660039556099,5119569.814163344,293.66542461033123,3126.553613595849,55.83419913045741,1.83697045646823,0.00034640443440087814
0.3020000000000001,7431.988641801751,4.5029100016490275,5115025.79202956,293.6261858911989,3132.433044181522,55.69644306897046,1.8397952961955897,0.00040106123486391453
0.3420000000000001,7425.3218434855735,4.529204830256999,5110478.02349055,293.5868879331651,3138.1183503401226,55.55880064359245,1.8426149741335658,0.0004555288654906641
0.38200000000000006,7417.556172486186,4.557146072310986,5105927.680785119,293.5475407724769,3144.1517494908026,55.42130602386391,1.8454287077352156,0.0005097977651430401
0.42200000000000004,7410.609399971143,4.584136050913605,5101374.092568108,293.5081385148734,3149.982048318201,55.28393959257909,1.8482369060215724,0.0005638760250993615
0.462,7403.188337105274,4.611844301320757,5096817.71620943,293.4686850267107,3155.9627619091566,55.14671461955841,1.851039251381112,0.0006177609361063789
0.502,7397.540254473705,4.63914781009968,5092258.248454701,293.429177591937,3161.2726707098936,55.009622262502994,1.8538359151650095,0.0006714569901516956
0.542,7394.32656307334,4.667031860447511,5087695.891375543,293.3896178701157,3165.4458881826517,54.87266836233792,1.8566267453524956,0.0007249638694586612
0.5820000000000001,7390.748952971626,4.69492465988372,5083130.281523551,293.3500026167136,3169.614696426715,54.73584239783627,1.8594119505773434,0.000778286537736757
0.6220000000000001,7387.457536702626,4.7225021484055265,5078561.167086235,293.3103295478432,3173.736075975326,54.59913714191226,1.8621916665918679,0.0008314288388620823
0.6620000000000001,7384.169733588963,4.750327591423253,5073988.701514198,293.27059989575224,3177.892307261715,54.46255709081886,1.8649657719331107,0.0008843908031044838
0.7020000000000002,7381.066352022726,4.778073564604336,5069412.815863406,293.2308129616861,3182.03577699152,54.32610032783082,1.8677342864923239,0.0009371745096329126
0.7420000000000002,7378.035836672139,4.8059460294922145,5064833.579834643,293.1909692516642,3186.196446551171,54.1897689364693,1.8704971429729118,0.0009897807311639814
0.7820000000000003,7375.1474993088095,4.833816716909131,5060250.976409309,293.15106851773885,3190.3556920283477,54.053562510342324,1.873254329138782,0.0010422110205000725
0.8220000000000003,7372.358079563105,4.86176692150482,5055665.042126377,293.11111097803933,3194.525329898691,53.91748218633899,1.876005799507297,0.001094466417797148
0.8620000000000003,7369.694768666187,4.889745885309953,5051075.779326487,293.07109655297404,3198.698008199513,53.781528125289135,1.8787515304223237,0.0011465482565831762
0.9020000000000004,7367.140559853253,4.917786431430868,5046483.211322238,293.03102534573304,3202.878498410179,53.645701093128466,1.8814914855148823,0.0011984576597253993
0.9420000000000004,7359.868298532098,4.945868237444249,5041887.347579177,292.9908973388051,3206.3478731087744,53.51000146439213,1.8842256374253188,0.0012501958568348005
0.9820000000000004,7346.321768572634,4.974696789242343,5037288.205812928,292.9507125866953,3209.108917144258,53.37442985344639,1.886953954043452,0.0013017639842394025
1.0220000000000005,7332.0519488137625,5.003557062463482,5032685.156582809,292.91046548357286,3211.862935100524,53.23896850646086,1.8896768017246568,0.0013531689337628037
1.0620000000000005,7318.369206916184,5.031816821337059,5028077.720629863,292.8701517223088,3214.5599883488453,53.1036040464123,1.892394450495764,0.0014044161527671263
1.1020000000000005,7304.525572710309,5.0604674049391045,5023466.122265459,292.8297731461206,3217.2919368978696,52.968343098934746,1.895106736953746,0.0014555047755469641
1.1420000000000006,7290.890522932936,5.089016151460631,5018850.23813921,292.78932855604546,3220.013176569394,52.833182432916445,1.8978137115287423,0.001506437015102218
1.1820000000000006,7277.27974842266,5.117710153350641,5014230.117780457,292.7488182660455,3222.746569863506,52.6981237221644,1.9005153189029205,0.0015572135319932119
1.2220000000000006,7263.782742010028,5.146427104027719,5009605.724543976,292.7082418344953,3225.480805786261,52.56316621057393,1.9032115565848469,0.0016078357303981829
1.2620000000000007,7250.354119424274,5.1752285183214966,5004977.06408869,292.66759919003255,3228.221570770309,52.4283103439397,1.905902396482685,0.0016583046244004458
1.3020000000000007,7237.014745521718,5.204084747345693,5000344.120880402,292.62689007472875,3230.966125247498,52.29355597774835,1.9085878235423868,0.0017086213965536877
1.3420000000000007,7223.753086843863,5.233011200383957,4995706.88947439,292.58611431859555,3233.715892146225,52.15890325859226,1.9112678167586654,0.0017587871242535635
1.3820000000000008,7220.863567981723,5.262001091330762,4991065.35916169,292.545271704745,3235.373510146591,52.024352192131595,1.913942358458646,0.0018088029139614336
1.4220000000000008,7218.141254948585,5.291419680668089,4986419.521485573,292.5043620354327,3236.9962343409325,51.88990285414269,1.9166114297616377,0.0018586698361952798
1.4620000000000009,7215.661967942229,5.320466355580267,4981769.0485747,292.46338229659926,3238.5983778412306,51.755546418054834,1.9192752021328872,0.0019083916733860316
1.502000000000001,7213.257589168064,5.34977087149984,4977114.06281393,292.42233343736956,3240.2133717279175,51.62128665964241,1.921933577594857,0.001957968319316243
1.542000000000001,7211.006391308893,5.3790607562832715,4972454.494824599,292.3812147166625,3241.82680504299,51.48712200619605,1.9245865727464457,0.0020074012951470524
1.582000000000001,7208.8772932157,5.40845836017639,4967790.360169837,292.340026141564,3243.4447823392543,51.35305325999833,1.9272341537653632,0.002056691382158965
1.622000000000001,7206.886870450514,5.437910122178456,4963121.636436247,292.2987673833621,3245.0628023040294,51.219080172847946,1.9298763094758666,0.002105839669616816
1.662000000000001,7205.030578166461,5.4674409251898615,4958448.317608324,292.2574382573772,3246.6841879044573,51.085202958839474,1.9325130191155138,0.0021548470933777483
1.702000000000001,7203.313939895554,5.497039864941205,4953770.38977829,292.2160385084348,3248.308366797733,50.9514216196505,1.9351442666809422,0.0022037146415129
1.742000000000001,7201.738077041344,5.526712801815649,4949087.84250223,292.17456791122,3249.935645963127,50.817736259373795,1.9377700342346023,0.002252443258906658
1.7820000000000011,7195.575018728779,5.556457950465858,4944400.663526309,292.133026223627,3250.9893898566847,50.68414693845047,1.9403903049972215,0.0023010338917439804
1.8220000000000012,7186.691868116481,5.586632011826184,4939708.841089032,292.0914132071235,3251.7720669944015,50.5506537372615,1.9430050619948747,0.002349487468486864
1.8620000000000012,7177.794159488442,5.616617776701648,4935012.063763088,292.04972596167585,3252.547911128966,50.41724851988664,1.9456144613886428,0.0023978073666940055
1.9020000000000012,7168.939837307783,5.6466501103139235,4930310.301618244,292.00796407992,3253.3245867483397,50.28393092215022,1.9482184952227144,0.00244599460891062
1.9420000000000013,7160.099440368458,5.67677928491416,4925603.553229032,291.9661274066576,3254.1032120120094,50.15070136881527,1.9508171391365554,0.0024940499704363883
1.9820000000000013,7151.283673327941,5.706979347594595,4920891.798406153,291.9242156191607,3254.8831527276266,50.01755977646961,1.9534103796588191,0.002541974368006875
2.022000000000001,7142.488199812567,5.73726105194097,4916175.023978162,291.8822284561405,3255.6646705076637,49.884506260445185,1.9559981993338849,0.0025897686484479617
2.062000000000001,7133.7141248515945,5.76762126400302,4911453.213913937,291.84016562994833,3256.447685353667,49.751540864361885,1.95858058239724,0.0026374336696186915
2.102000000000001,7124.960618524126,5.798061897469975,4906726.35291454,291.7980268585086,3257.2322416256634,49.61866365827984,1.9611575127119443,0.0026849702713367595
2.1420000000000012,7116.227541711784,5.82858305840852,4901994.425128455,291.755811853872,3258.018339058704,49.48587470361704,1.9637289744984214,0.0027323792859815454
2.1820000000000013,7100.807554952549,5.8591854973720325,4897257.414608506,291.7135203262726,3258.380255212627,49.353174065575125,1.9662949520698183,0.0027796615349738687
2.2220000000000013,7082.141796915411,5.890112048402877,4892515.305152127,291.67115198269175,3258.5382376017124,49.22056180877463,1.9688554299184424,0.002826817830231983
2.2620000000000013,7063.979729985908,5.920939419458374,4887767.884658629,291.6287047769328,3258.6935427057456,49.08803271801261,1.9714105021474349,0.0028738505223791983
2.3020000000000014,7046.262123869806,5.95182698576468,4883015.127106033,291.5861783222087,3258.8491808894278,48.955586632743575,1.9739601577210253,0.002920760460787314
2.3420000000000014,7028.932722589703,5.982818511156002,4878257.027538439,291.5435724191608,3259.005176712975,48.823223966947005,1.9765043738513046,0.0029675483174356147
2.3820000000000014,7011.991683916825,6.01388919941383,4873493.563224611,291.5008867083644,3259.161426667661,48.69094466147911,1.979043137702347,0.0030142148941045095
2.4220000000000015,6995.418752070265,6.045048278047903,4868724.717439532,291.45812088307673,3259.317971176562,48.55874882545233,1.9815764330969583,0.0030607609345583006
2.4620000000000015,6979.200899277206,6.07629380971577,4863950.471368185,291.4152746167448,3259.4747977494867,48.42663651818628,1.9841042450244626,0.003107187188477123
2.5020000000000016,6963.324083048452,6.107627115865192,4859170.8064954365,291.3723475844013,3259.631910012044,48.29460781346541,1.986626558308948,0.003153494392832309
2.5420000000000016,6947.775453916238,6.139048620066619,4854385.703942461,291.32933945670186,3259.789307038939,48.162662781723085,1.989143357972839,0.0031996832772136245
2.5820000000000016,6937.953555910385,6.170558988963444,4849595.144644875,291.2862499015089,3259.5070040453907,48.03080149481406,1.9916546291346682,0.0032457545625738152
2.6220000000000017,6927.93722806096,6.202382822905866,4844799.1093062,291.2430785834598,3259.1992362521037,47.89902402477185,1.9941603570308033,0.003291708961719203
2.6620000000000017,6917.822443642393,6.23404437738517,4839997.404631659,291.19982359803055,3258.8933395616555,47.76732583445248,1.9966606210539777,0.003337548504277875
2.7020000000000017,6907.499966935825,6.265874897146137,4835190.067777363,291.1564851131103,3258.586013145137,47.6357085273838,1.9991553750171973,0.0033832734401263317
2.7420000000000018,6896.998874861249,6.297779231177452,4830377.064708971,291.11306265443505,3258.2781241748016,47.50417182112416,2.001644611397534,0.0034288845549162207
2.782000000000002,6886.315832821084,6.329780101405802,4825558.37812269,291.06955589726795,3257.9694742846164,47.372715883660234,2.0041283135843657,0.0034743824972647045
2.822000000000002,6875.312854350196,6.361873896761091,4820733.987116591,291.02596448321265,3257.658415427348,47.241340794015606,2.006606466883782,0.0035197679339618463
2.862000000000002,6864.1854985304,6.394062762270088,4815903.8711075755,290.9822880555152,3257.3453630410545,47.11004664603735,2.009079056400096,0.0035650415202920535
2.902000000000002,6853.080288530532,6.426345921839434,4811068.0085774865,290.93852624771625,3257.031554202537,46.97883351536974,2.011546067702074,0.0036102039095681597
2.942000000000002,6848.3010095910195,6.458724099856147,4806226.378289619,290.8946786946325,3256.546359369777,46.84770149150697,2.014007486170083,0.00365525574410005
2.982000000000002,6849.959790500717,6.491272872827944,4801378.959124799,290.8507450308726,3255.8888515769568,46.71665067340405,2.0164632970834924,0.0037001976565801545
3.022000000000002,6851.9247805698915,6.5239071081014695,4796525.673863622,290.8067243807266,3255.229187096806,46.58567970150047,2.01891351512297,0.0037450306849606614
3.062000000000002,6854.271994947567,6.556581359994043,4791666.464868404,290.7626160434453,3254.5691995927937,46.45478774330999,2.021358144278254,0.0037897557087567886
3.102000000000002,6857.017019461547,6.589375155655969,4786801.324564641,290.7184197709173,3253.9072205196057,46.32397528195773,2.023797162140012,0.0038343732286199995
3.142000000000002,6860.17213691113,6.622263771057223,4781930.226738697,290.6741351445803,3253.2437267121263,46.19324232020497,2.0262305560332647,0.0038788838745008204
3.182000000000002,6863.754999270311,6.655253065933168,4777053.149022873,290.6297617794143,3252.578609072241,46.062588967679325,2.0286583112103105,0.0039232882397984776
3.222000000000002,6867.782725098731,6.688343087108514,4772170.068246964,290.5852992817262,3251.9118629635627,45.93201531965495,2.031080413281554,0.003967586915666021
3.2620000000000022,6872.2736362295145,6.721534482955742,4767280.961009083,290.5407472543162,3251.243474661105,45.8015214719538,2.0334968479136735,0.0040117804869007016
3.3020000000000023,6870.797331335404,6.754827968235996,4762385.803692169,290.4961052966122,3250.494803221355,45.671107521398746,2.0359076008178123,0.004055869531908657
3.3420000000000023,6855.253982102183,6.788249318191056,4757484.572430922,290.4513730043508,3249.569344145505,45.540773564984136,2.0383126577633237,0.004099854623026369
3.3820000000000023,6839.725238280216,6.821801539304881,4752577.224929787,290.406549803422,3248.6402170932142,45.41051923275647,2.04071201381697,0.004143736456432056
3.4220000000000024,6824.296332768895,6.855403540396003,4747663.702569151,290.3616349684591,3247.708410349442,45.28034374610596,2.0431056721064325,0.004187515834896552
3.4620000000000024,6808.931709574254,6.889128305419115,4742743.992676265,290.31662819213227,3246.772690610316,45.15024751567317,2.0454936122432206,0.004231193224347543
3.5020000000000024,6793.638223129385,6.922955714221143,4737818.067308329,290.271529026101,3245.834707636276,45.020230566333375,2.047875821524401,0.004274769192315059
3.5420000000000025,6778.415027183959,6.956889500959088,4732885.9011700675,290.2263370446923,3244.8943743654236,44.89029299774795,2.0502522858149574,0.004318244279963373
3.5820000000000025,6763.261123073221,6.990930812359056,4727947.468869532,290.1810518198123,3243.9516565494146,44.76043491385888,2.0526229909408658,0.0043616190217761
3.6220000000000026,6748.176009644046,7.025080063356719,4723002.744571984,290.1356729177557,3243.006542564981,44.630656414095355,2.054987922859357,0.004404893948061607
3.6620000000000026,6734.9625801402,7.059338038885923,4718051.702245216,290.0901999014334,3241.9879462451936,44.50095759967952,2.0573470675323664,0.004448069583286439
3.7020000000000026,6724.759976035581,7.093719321466309,4713094.315596101,290.044632329772,3240.8477479483768,44.37133857204792,2.059700410955118,0.004491146446586335
3.7420000000000027,6714.54264396072,7.128218528443961,4708130.54834506,289.9989696681912,3239.704122047333,44.241799187116385,2.0620479439362733,0.004534125119069329
3.7820000000000027,6704.337755338922,7.16280714105921,4703160.360509894,289.9532113461008,3238.5582796508675,44.11233921611826,2.0643896589264026,0.004577006199382368
3.8220000000000027,6694.136954940696,7.197513880479776,4698183.729540389,289.90735695156235,3237.4092716301643,43.98295887857281,2.066725539665815,0.004619790158273962
3.8620000000000028,6683.941129202651,7.232332264618852,4693200.627294219,289.8614060195238,3236.257299061326,43.85365825957105,2.069055572540973,0.004662477498324566
3.902000000000003,6673.750140913478,7.267263814873963,4688211.0261054,289.81535808762845,3235.1023167919057,43.7244374632905,2.0713797435922783,0.004705068711985185
