time,thrust,OF,ox_tank.pressure,ox_tank.temperature,combustion_chamber.temperature,propellant_mass,propellant_CG,combustion_chamber.fuel_grain.geometry.length_regressed
0.007,236.31172565189846,5.440852225705301,3964659.0751320026,282.70816689978886,2914.744610182378,52.34861100345201,1.976694952665122,1.1560727382409848e-05
0.014,967.3787283698385,5.074256057882323,3963796.1378653655,282.6991318349865,3052.179450387177,52.31548699023253,1.9773166367977109,2.3060592322884567e-05
0.021,2099.4629095926966,4.9718574677544405,3962995.8050892875,282.69075094007275,3092.2616702972427,52.28468805663873,1.9778907105801582,3.3935584989734645e-05
0.028,3001.201955447914,4.894251133490132,3962254.4564826014,282.682986590642,3108.9866639383063,52.25608294474556,1.9784201005774436,4.421087480445917e-05
0.035,3679.428830271756,4.834979635218975,3961565.1223326824,282.6757660339271,3115.9881169888004,52.229416049145776,1.9789102194735497,5.39470617868086e-05
0.042,4239.83959414075,4.792685702630593,3960920.041907215,282.6690081748345,3119.7491881339333,52.20440150306105,1.979367024086606,6.321599228485164e-05
0.049,4644.566498042282,4.764779008774655,3960311.450249751,282.662631821724,3122.2242426720445,52.180752235026794,1.9797964246992525,7.209290701640065e-05
0.056,4946.2823151303755,4.748343902771259,3959732.134616577,282.65656152338806,3124.253650955746,52.15820075415671,1.9802038754664792,8.065023752408214e-05
0.063,5169.519038521828,4.739868738611784,3959175.7319395975,282.6507306944583,3126.070589749052,52.13651045675698,1.9805941624799506,8.89537415340233e-05
0.07,5331.66694393185,4.736849284699556,3958636.9174436564,282.6450836004642,3127.7559314811233,52.11548292492294,1.9809712740430514,9.705968869695621e-05
0.07700000000000001,5450.839001652404,4.737102746319903,3958111.3706077365,282.6395750088764,3129.2814469698706,52.094956892689474,1.981338435236201,0.00010501453975256378
0.08400000000000002,5537.342756920533,4.739228046726222,3957595.699913383,282.6341694068982,3130.645296126957,52.07480561001459,1.981698170894002,0.00011285525001303696
0.09100000000000003,5599.787061626174,4.742353416461414,3957087.303562779,282.62883954681047,3131.8447279917696,52.05493175212314,1.9820524138391986,0.0001206104503225216
0.09800000000000003,5644.687982765763,4.7459745515655385,3956584.220221479,282.6235648854474,3132.9034364414547,52.03526190578152,1.982402618668115,0.0001283018802461391
0.10500000000000004,5676.8823361878485,4.749816427645526,3956084.990512683,282.6183301352624,3133.832291349757,52.0157414240394,1.9827498662620915,0.00013594580024859712
0.11200000000000004,5699.809487427987,4.753778955048138,3955588.539020296,282.6131240295023,3134.667056821654,51.99633002813092,1.983094952262109,0.00014355423723113095
0.11900000000000005,5716.034868075507,4.7577562569225265,3955094.0746780355,282.6079382794387,3135.4252644617995,51.97699808664406,1.9834384613962819,0.00015113606104095922
0.12600000000000006,5727.437852431033,4.761711001650626,3954601.021603335,282.60276685030885,3136.123548795796,51.957724028400364,1.983780819006556,0.00015869774037969772
0.13300000000000006,5735.375313680742,4.765636528045307,3954108.9630851466,282.5976053748128,3136.7768312296826,51.938492245457404,1.9841223326615205,0.00016624396185982383
0.14000000000000007,5740.824721444769,4.769534220906353,3953617.598427594,282.5924507011434,3137.3967627202724,51.91929147658762,1.984463224159081,0.00017377811030319684
0.14700000000000008,5744.4891297926415,4.773408424148507,3953126.7110944954,282.58730055932654,3137.9922160902915,51.90011361368436,1.9848036531199222,0.00018130262484990196
0.15400000000000008,5746.873638268482,4.7772640303803655,3952636.145387582,282.5821533169173,3138.569829712949,51.88095282778895,1.9851437342438523,0.00018881926044366922
0.1610000000000001,5748.3408248918395,4.7811054836097036,3952145.7894766238,282.57700780121485,3139.134509673863,51.861804933132504,1.985483549856394,0.00019632927846582976
0.1680000000000001,5749.150801131169,4.7849364603187325,3951655.563105443,282.57186317045137,3139.689850820855,51.84266692643401,1.9858231589923627,0.00020383358500644205
0.1750000000000001,5749.490085363549,4.788759852393325,3951165.408713387,282.5667188207572,3140.238471318807,51.8235366542248,1.9861626039522213,0.00021133283078889384
0.2150000000000001,5749.492379873932,4.792577866704557,3950675.285037894,282.56157431911805,3140.782269840508,51.80441257317325,1.9865019150239671,0.00021882748319316253
0.2550000000000001,5742.647789301427,4.8007976742715766,3947870.3117053593,282.53212325351484,3141.8700817326403,51.69517501283652,1.988439767105931,0.00026159617617724744
0.2950000000000001,5738.02013054795,4.821339774309638,3945062.1183330887,282.50262279551526,3144.7383418920017,51.58598251241694,1.9903763229548856,0.0003042624827796715
0.3350000000000001,5733.010996061155,4.843457076552229,3942251.636560041,282.4730826677805,3147.8249460121333,51.47686976568186,1.9923108851365223,0.0003468167457048501
0.37500000000000006,5728.380414604699,4.864988962118102,3939438.6457212926,282.44350049238227,3150.8316413166654,51.367828610073104,1.9942435984636495,0.00038926212550678875
0.41500000000000004,5723.52261924826,4.887014282128693,3936623.340548433,282.41387825820306,3153.904480081138,51.25886629044339,1.9961743054641166,0.0004315971826066267
0.455,5718.873766474603,4.908723410664987,3933805.593827525,282.3842145681462,3156.9337175003457,51.14997813013818,1.9981030827934638,0.00047382401694626267
0.495,5714.116017950041,4.930706384255912,3930985.5109259784,282.3545104725428,3159.999290568862,51.041168056414875,2.000029838522336,0.0005159421659546903
0.535,5708.583157504667,4.952531722921936,3928163.0275835902,282.3247652357958,3162.0201275550417,50.93243373490654,2.0019546036623423,0.0005579530153827453
0.5750000000000001,5702.081223497997,4.975537031761297,3925338.2031548726,282.2949794244746,3164.0511645730667,50.82377739180228,2.0038773200273687,0.0005998565946818185
0.6150000000000001,5696.517023337807,4.99721436987476,3922510.4250859097,282.26514651582426,3165.9674923869534,50.715176588710165,2.005798412261905,0.0006416601791983461
0.6550000000000001,5690.860253228919,5.019729139029176,3919680.0183898197,282.2352698722936,3167.9542347496435,50.60664337672126,2.0077176298258355,0.0006833608688722244
0.6950000000000002,5685.728082737209,5.041778438404571,3916846.764472866,282.2053471207756,3169.9004083108466,50.498169851479275,2.009635112847655,0.0007249616258997976
0.7350000000000002,5680.754113617736,5.064177674554629,3914010.7845208547,282.17537947440303,3171.875454781894,50.38976057252379,2.0115507577846627,0.0007664617454948091
0.7750000000000002,5676.1559992653,5.086421420631425,3911171.9886119454,282.14536591629957,3173.8363304880986,50.281412375808905,2.013464612231882,0.0008078627785720446
0.8150000000000003,5671.809877585902,5.108821571122508,3908330.4166078726,282.1153068006044,3175.809586522881,50.17312684750177,2.015376631084212,0.0008491648793020383
0.8550000000000003,5667.791533225967,5.131188076776401,3905486.0287889503,282.0852016396432,3177.779039365992,50.06490267413892,2.0172868259977306,0.0008903690410003688
0.8950000000000004,5663.199527180203,5.1536368109551125,3902638.8334661825,282.0550504534011,3179.753265890369,49.956740298504094,2.0191951744647687,0.000931475738063757
0.9350000000000004,5658.037669366341,5.176124414594353,3899788.809790912,282.0248529528034,3181.728702653676,49.84863910747323,2.02110167470076,0.0009724857448835311
0.9750000000000004,5652.880270291171,5.198633327683003,3896935.939843219,281.99460887914597,3183.704975676519,49.740598601710175,2.0230063228059176,0.0010133997951365962
1.0150000000000003,5647.738420073894,5.221169554582726,3894080.217706356,281.9643181004557,3185.6827905020673,49.63261872291176,2.0249091063978657,0.0010542184878413478
1.0550000000000004,5642.720027481096,5.243746998158943,3891221.6430506497,281.9339805437233,3187.310282185587,49.524699618894296,2.026810009202462,0.0010949423562689705
1.0950000000000004,5637.751319385463,5.266482061055709,3888360.212120686,281.9035960993337,3188.4490374563834,49.416841317151565,2.028709017410179,0.0011355719623817638
1.1350000000000005,5632.686830553587,5.289269107812297,3885495.855356495,281.87316395804544,3189.588300014798,49.30904148046159,2.030606163285959,0.0011761085403034987
1.1750000000000005,5627.690886106901,5.311956876480188,3882628.5131183104,281.84268341426593,3190.722410851442,49.20129814609299,2.0325014718341277,0.001216553206038756
1.2150000000000005,5622.677623305262,5.334760044815533,3879758.215310422,281.8121547134488,3191.8615408787045,49.09361258050708,2.0343949053973094,0.001256906142845252
1.2550000000000006,5617.693096692542,5.357559633468938,3876884.941165484,281.78157756213056,3193.0000362486326,48.98598423092922,2.03628646177722,0.0012971680497926748
1.2950000000000006,5612.712330653125,5.38042057504991,3874008.69720815,281.75095195681575,3194.1409813285127,48.878413528388755,2.0381761197810273,0.001337339339001673
1.3350000000000006,5607.748516202708,5.403308199468298,3871129.475096586,281.72027773551,3195.2827283978127,48.77090037421617,2.0400638686041876,0.0013774205684400059
1.3750000000000007,5602.794404178531,5.426241581500054,3868247.274328926,281.6895548193891,3196.426182711361,48.66344495397451,2.04194969203504,0.0014174122097136226
1.4150000000000007,5597.853662626478,5.449210886158229,3865362.090053309,281.6587830829811,3197.5708764232036,48.55604730113029,2.0438335769146634,0.00145731477244639
1.4550000000000007,5592.924151296391,5.4722217805661195,3862473.919592969,281.6279624236875,3198.7170778252084,48.44870753024371,2.04571550861547,0.0014971287380429106
1.4950000000000008,5588.006814897523,5.495271644851327,3859582.7589654853,281.59709272467114,3199.8646617063455,48.34142571274109,2.047595473445762,0.0015368545950283164
1.5350000000000008,5583.10096903099,5.518362275180214,3856688.6047349484,281.56617387460835,3201.0137124760763,48.2342019429004,2.0494734573705933,0.0015764928204232507
1.5750000000000008,5578.104230561445,5.541493121623008,3853791.4530305364,281.53520575721046,3202.025907873766,48.127036302921354,2.051349446685859,0.0016160438896969849
1.6150000000000009,5572.665139569057,5.564762173226585,3850891.300065949,281.5041882567664,3202.5544464235045,48.019928881369104,2.0532234276600128,0.00165550827163006
1.655000000000001,5566.956434011451,5.5882934678973655,3847988.091003555,281.4731207107803,3203.0851287174573,47.91287796817383,2.0550954213414174,0.0016948869343379074
1.695000000000001,5561.397617945486,5.611499291843291,3845081.669534295,281.4420013684343,3203.6089594029822,47.805878291289375,2.056965517430998,0.0017341818344207484
1.735000000000001,5555.782397738877,5.634936307938478,3842172.111622217,281.41083096397307,3204.137385847,47.69893278823543,2.0588336473400215,0.001773392620271636
1.775000000000001,5550.207445949004,5.65832776640661,3839259.373922598,281.3796089539708,3204.664633557791,47.592040190594744,2.0606998236597773,0.0018125201141252275
1.815000000000001,5544.627597390669,5.681804611636652,3836343.4693352333,281.34833539710473,3205.1934387842953,47.48520121481253,2.0625640208199654,0.0018515645785899513
1.855000000000001,5539.06358016535,5.705306095454181,3833424.384374179,281.317010068878,3205.7225295819258,47.37841565263641,2.0644262311396213,0.0018905265300649655
1.8950000000000011,5533.505909475395,5.728860844713062,3830502.1176534127,281.28563287416745,3206.250435526547,47.27168372421115,2.06628643877502,0.0019294063611883423
1.9350000000000012,5527.957847573842,5.752456943695314,3827576.6620545452,281.25420365595596,3206.778438105111,47.16500545206703,2.0681446317628236,0.0019682045153058573
1.9750000000000012,5522.418241666423,5.7760988761007255,3824648.0124817262,281.222722278541,3207.3071581665613,47.05838093302763,2.070000796789767,0.0020069214108759444
2.015000000000001,5516.8876083619725,5.799785335335281,3821716.1631450653,281.1911885983679,3207.8365691448666,46.951810243062425,2.071854921020087,0.0020455574679684118
2.055000000000001,5511.365538196838,5.823517468918418,3818781.1085259304,281.1596024743975,3208.3666936576615,46.84529347099846,2.0737069914469415,0.0020841130989812284
2.095000000000001,5503.459910911106,5.847295148225266,3815842.8428358794,281.1279637622853,3208.726905078658,46.73883069964033,2.0755569952533324,0.002122588713921024
2.135000000000001,5491.5105213477655,5.871231338583173,3812901.360267783,281.09627231707725,3208.8016014572295,46.6324220145183,2.077404919642999,0.0021609847180407344
2.175000000000001,5479.540615295424,5.89526511929986,3809956.598337298,281.0645273822459,3208.8747225036395,46.52606554341105,2.079250789319535,0.0021993020496369076
2.215000000000001,5467.784231052852,5.919180103794242,3807008.484153975,281.0327280871726,3208.9477154204014,46.41975907004267,2.0810946355246855,0.0022375417338337915
2.2550000000000012,5456.093591653312,5.9432229126078,3804057.0458011487,281.0008746492288,3209.0209334868136,46.31350387880338,2.0829364226129248,0.0022757038307612194
2.2950000000000013,5444.529576073296,5.96728069944497,3801102.2620767476,280.9689667538288,3209.094148205418,46.207299552679714,2.084776147527373,0.002313788863367704
2.3350000000000013,5433.065574156217,5.991400202773699,3798144.1320779957,280.93700430497256,3209.1674589016807,46.101146379237925,2.086613793816718,0.0023517971580084046
2.3750000000000013,5421.709854159862,6.015563156012392,3795182.646641582,280.90498711702065,3209.2408243423856,45.99504436460569,2.0884493504653907,0.0023897291143333663
2.4150000000000014,5410.457055973092,6.039777172280453,3792217.799726501,280.8729150376032,3209.3142604261748,45.88899362586379,2.09028280440357,0.002427585098121137
2.4550000000000014,5399.3071506836495,6.064039665891801,3789249.5839290633,280.8407878991568,3209.3877602139974,45.78299423668195,2.0921141434499377,0.0024653654834358627
2.4950000000000014,5388.258088890203,6.088352042201796,3786277.992236703,280.8086055378788,3209.4613258172535,45.67704628759496,2.093943355161785,0.0025030706362560995
2.5350000000000015,5377.308630792619,6.112714156187554,3783303.0173467714,280.77636778635343,3209.5349557877216,45.57114986263275,2.0957704272789157,0.0025407009208752575
2.5750000000000015,5366.457262863589,6.13712646216965,3780324.6519293487,280.74407447639067,3209.6086500689335,45.465305048330244,2.097595347551046,0.002578256697499835
2.6150000000000015,5365.1108881042055,6.161589185364585,3777342.888526471,280.7117254379293,3209.393961587912,45.35951193028511,2.099418103802148,0.0026157383232263695
2.6550000000000016,5365.246495438197,6.186271921378695,3774357.719590421,280.6793204994464,3209.1306465450266,45.25377059447251,2.101238683904358,0.0026531461517286573
2.6950000000000016,5365.512556394465,6.210830570430253,3771369.0555113438,280.6468585973332,3208.8687322934534,45.148078347952705,2.1030571284025603,0.002690481280165201
2.7350000000000017,5365.915051274169,6.235496275180698,3768376.9134466955,280.6143398260838,3208.605769573347,45.0424361330312,2.104873408952205,0.0027277438224667617
2.7750000000000017,5366.456739178478,6.260196451755835,3765381.27715808,280.5817639170517,3208.3425333368928,44.93684376139119,2.1066875186846437,0.002764934193718417
2.8150000000000017,5367.141636325391,6.284955030582805,3762382.141042753,280.5491307166219,3208.078766524755,44.83130140884281,2.10849944388637,0.0028020527080241113
2.8550000000000018,5367.973581767497,6.309764606942617,3759379.4959016945,280.51644003155565,3207.8120481350616,44.72580913296834,2.1103091731296115,0.0028390997081268036
2.895000000000002,5368.955840662494,6.334629182353006,3756373.3335651825,280.4836916792773,3207.544462013257,44.62036702966081,2.112116694310137,0.0028760755234582326
2.935000000000002,5370.0930439148915,6.359545808413949,3753363.644821569,280.450885465321,3207.2764099312976,44.514975163270016,2.1139219959655153,0.002912980488856152
2.975000000000002,5371.389513665578,6.384516671571327,3750350.421215618,280.4180212029142,3207.007867705797,44.40963362716351,2.1157250661313864,0.0029498149284354408
3.015000000000002,5372.849604170413,6.40954148555759,3747333.653921173,280.3850987006926,3206.738837426367,44.30434250576768,2.1175258930568472,0.002986579165761139
3.055000000000002,5374.477877003375,6.434620732792591,3744313.3340902627,280.35211776649885,3206.469313039868,44.19910188631897,2.1193244649818954,0.0030232735207513873
3.095000000000002,5371.560057636224,6.459754659200558,3741289.4527449724,280.31907820619693,3206.0302749816565,44.093911855245494,2.121120770204642,0.0030598983106764083
3.135000000000002,5366.486716735314,6.485022847706269,3738262.0008102735,280.28597982402425,3205.5117975468343,43.98877249927941,2.1229147970594284,0.003096453849897853
3.175000000000002,5361.416372904114,6.510289780154152,3735230.9319743156,280.2528220161804,3204.993308429131,43.88368267014955,2.124706557080037,0.0031329407759571296
3.215000000000002,5356.356460699255,6.535607791655137,3732196.236344964,280.2196045760773,3204.474043332551,43.77864244053252,2.126496038886778,0.00316935939992743
3.255000000000002,5351.302482411527,6.560987024168976,3729157.9063419937,280.18632732185415,3203.9537510210644,43.67365196344714,2.128283229633553,0.003205710009005685
3.295000000000002,5346.255947424485,6.586420972581323,3726115.9314643606,280.1529900390876,3203.432567988998,43.56871129841568,2.130068118264806,0.003241992912383863
3.335000000000002,5341.216336150635,6.611912439134712,3723070.3022114597,280.1195925237045,3202.9104368965627,43.46382054181758,2.131850693071165,0.0032782084068941407
3.375000000000002,5336.183717138474,6.637460982804406,3720021.008630006,280.0861345660627,3202.387365892613,43.35897977866462,2.1336309425919397,0.0033143567897479785
3.4150000000000023,5331.158005447572,6.663067118360607,3716968.0407534577,280.05261595575894,3201.863344156069,43.25418909718354,2.1354088553412875,0.0033504383547297636
3.4550000000000023,5326.139154862515,6.68873110693481,3713911.388482298,280.0190364803093,3201.338365856,43.14944858486891,2.137184419881179,0.003386453393264912
3.4950000000000023,5321.127111532118,6.714453273542335,3710851.041613601,279.9853959254668,3200.8124239309996,43.044758329477254,2.1389576248019684,0.003422402194189251
3.5350000000000024,5316.121824390316,6.740233929626866,3707786.98983365,279.9516940751331,3200.2855115914226,42.94011841879989,2.1407284587257944,0.0034582850438383906
3.5750000000000024,5306.8483661899545,6.766073390712897,3704719.2227190626,279.91793071136414,3199.605223768638,42.835528940717495,2.14249691030473,0.0034941022260628445
3.6150000000000024,5296.7329510577165,6.7920214137693415,3701647.7297360725,279.88410561435467,3198.8921450863345,42.730989983194206,2.144262968220075,0.0035298540222585177
3.6550000000000025,5286.672425809006,6.817981886649126,3698572.4778033285,279.8502183151118,3198.179002855031,42.62650090250395,2.1460266347595285,0.0035655409012737946
3.6950000000000025,5276.648345723539,6.844012434730777,3695493.461096213,279.81626864400437,3197.464286403296,42.52206195098927,2.1477878955791425,0.0036011630963302876
3.7350000000000025,5266.663812553363,6.870101469951881,3692410.6677645533,279.78225636436827,3196.7482934578475,42.4176731877832,2.149546739952483,0.003636720888541634
3.7750000000000026,5256.718084187234,6.896251305252173,3689324.0868946323,279.74818124918113,3196.0301360762764,42.31333470636476,2.15130315654284,0.0036722145477894263
3.8150000000000026,5246.810305847419,6.922462742759342,3686233.7073303843,279.7140430680644,3195.308427672403,42.2090465961022,2.153057134116287,0.0037076443427354645
3.8550000000000026,5236.939088388542,6.948736640604727,3683139.5174927143,279.6798415852739,3194.585322595794,42.1048089364651,2.1548086616474498,0.0037430105423321017
3.8950000000000027,5227.106163302286,6.975070409250376,3680041.505224847,279.64557655797006,3193.860909004052,42.00062179213399,2.156557728408101,0.003778313417089153
