time,thrust,OF,ox_tank.pressure,ox_tank.temperature,combustion_chamber.temperature,propellant_mass,propellant_CG,combustion_chamber.fuel_grain.geometry.length_regressed
0.007,249.87384909726734,3.658726975980259,4812997.293915347,290.95598919599075,2651.8343215595005,46.39325349854093,2.0118189682098992,2.2225329782606295e-05
0.014,1207.4068276107507,3.4393327354351895,4811614.351792112,290.9434720204349,2646.314806183458,46.353418330634575,2.0124458067000517,4.431713035892895e-05
0.021,2478.5785961406286,3.4080427837543406,4810323.13766829,290.9317826140619,2647.8400860917395,46.316143094475535,2.013027774772506,6.519530538965257e-05
0.028,3485.601192933563,3.3856551381077824,4809114.907317845,290.92084229976547,2643.6223222933386,46.28118731588226,2.01356934471158,8.496317810215525e-05
0.035,4271.722996408548,3.3711278379253544,4807979.290343442,290.91055757974556,2640.214713643062,46.24826491750617,2.014075713713296,0.0001037480114338483
0.042,4881.006249239571,3.363418177587875,4806905.533654615,290.90083139724084,2638.7881852288433,46.21707842031053,2.0145522005766794,0.00012168537714328607
0.049,5349.748841132532,3.3612612823308083,4805883.247373352,290.8915699017911,2639.402740110827,46.187339632542205,2.0150038926245566,0.00013890919824116027
0.056,5707.937577018681,3.3632150873097197,4804902.881286362,290.88268677790177,2641.657151673093,46.15878302487167,2.0154354275774478,0.00015554487191570183
0.063,5977.054493200412,3.3679022455642205,4803956.01879477,290.87410592168163,2645.013372723205,46.131174111131564,2.015850865046309,0.0001717046072732497
0.07,6180.233100099955,3.3741967948831353,4803035.50366186,290.8657626022829,2648.9925910058846,46.10431318642605,2.0162536376340383,0.00018748499140879994
0.07700000000000001,6332.992497348183,3.3812757710322536,4802135.428702535,290.8576033710286,2653.2245687545283,46.07803518628384,2.0166465660281747,0.00020296653224077945
0.08400000000000002,6447.189968898241,3.3886073113630193,4801251.035248214,290.8495851601258,2657.4730572445524,46.05220700814037,2.0170319141646527,0.0002182145744332168
0.09100000000000003,6532.298359056282,3.3958860724506286,4800378.563635515,290.84167393553906,2661.6084242629327,46.026723418150375,2.017411465370046,0.0002332810395805689
0.09800000000000003,6595.563333656734,3.4029609312750266,4799515.088670813,290.8338432118442,2665.572706665648,46.001502501023026,2.017786603776046,0.0002482064964380001
0.10500000000000004,6642.47839687884,3.409781865332963,4798658.36197004,290.82607262781676,2669.355376863871,45.976481276555596,2.0181583911254584,0.0002630222238764307
0.11200000000000004,6677.184346519631,3.416352230289568,4797806.670787509,290.8183466701942,2672.967952223083,45.95161176176507,2.018527634849964,0.00027775210250132766
0.11900000000000005,6702.792757284207,3.422699656328747,4796958.7190689035,290.8106535978972,2676.3933223866543,45.92685764613341,2.018894945046833,0.0002924142324613621
0.12600000000000006,6721.672911228716,3.4288611229978367,4796113.531000688,290.802984569435,2679.189120758111,45.90219159210076,2.019260780461372,0.0003070222583222895
0.13300000000000006,6735.436010287287,3.4349074478180843,4795270.374427102,290.79533294986817,2681.9193848400764,45.877593089874324,2.0196254848678548,0.00032158642807800805
0.14000000000000007,6745.403194707009,3.440829234545152,4794428.692976657,290.7876936962412,2684.583487234922,45.85304655662296,2.0199893191672778,0.00033611453508715475
0.14700000000000008,6752.557084789026,3.4466557849338986,4793588.072429977,290.7800630533492,2687.1971385675934,45.82854039201195,2.0203524773563712,0.00035061238792599833
0.15400000000000008,6757.627247770543,3.4524099030479842,4792748.204754996,290.7724382280739,2689.772497403394,45.80406597003746,2.0207151035023676,0.00036508431229444866
0.1610000000000001,6761.1548980367625,3.4581095946495357,4791908.861197731,290.76481714568274,2692.319086687684,45.779616884714834,2.0210773044277195,0.00037953352698530857
0.1680000000000001,6763.5412577930965,3.4637688112252323,4791069.872055722,290.7571982666198,2694.8442475904085,45.755188383184276,2.0214391592339114,0.00039396242662072196
0.1750000000000001,6765.0836198936095,3.469398231847901,4790231.111539506,290.7495804493628,2697.3535808203883,45.73077694151419,2.0218007264226845,0.00040837279327936494
0.1820000000000001,6766.002186419056,3.4750059602313037,4789392.486474945,290.7419628480599,2699.8513275464734,45.706379948216565,2.022162049206062,0.00042276595439139786
0.22200000000000011,6766.4600128823295,3.4805981078510384,4788553.927889996,290.73434483629114,2702.340682271666,45.681995468639784,2.022523159457651,0.00043714290026417946
0.2620000000000001,6757.754715740552,3.489454901376182,4783753.588743984,290.69071589594364,2706.2525830874974,45.542751591364365,2.024584056542442,0.0005191205386480312
0.3020000000000001,6747.324874469068,3.5232473593950155,4778947.795522335,290.64700402743864,2721.2487493659437,45.40370414100851,2.0266414898505993,0.0006006774127807751
0.3420000000000001,6745.805710089896,3.5512725308796553,4774134.037214979,290.60318619798113,2733.7076018672815,45.26478259775571,2.0286965389455864,0.000681853125495008
0.38200000000000006,6738.6308557809625,3.5858875098706227,4769318.30263677,290.55931676366674,2749.0749191187665,45.126150741429136,2.0307463803186545,0.0007625725285169037
0.42200000000000004,6736.203637666961,3.615754014205067,4764496.576157664,290.5153590059224,2762.3459335808097,44.98769655411796,2.0327927901128424,0.0008428954019254114
0.462,6730.295425286349,3.6495464917904235,4759672.144107157,290.471342738995,2777.3470508376367,44.84950884003618,2.0348342017214662,0.0009227835133643516
0.502,6727.306856442252,3.6803973066579343,4754842.521512015,290.4272451529162,2791.049789137958,44.71151811621736,2.0368716853000635,0.0010022754057612193
0.542,6722.222226038002,3.713730971432314,4750009.7298303405,290.383084561505,2805.845450642654,44.5737782748234,2.038904261118967,0.001081349814729184
0.5820000000000001,6717.899369793142,3.7452499343777346,4745172.249120637,290.33884693736076,2818.0940128241823,44.43624654973774,2.0409325577785635,0.0011600319759151288
0.6220000000000001,6710.256965535634,3.7791083913636543,4740331.34609034,290.2945437224115,2830.299702947696,44.298956121999595,2.042955944736014,0.0012383105429406237
0.6620000000000001,6703.877632293711,3.811238465964686,4735485.138575075,290.2501575424657,2841.8835654098857,44.16185476485914,2.044975209433566,0.0013162148559153369
0.7020000000000002,6696.606834646571,3.8444961269393296,4730634.465616649,290.20569592167817,2853.867919216147,44.02496416800606,2.0469899152295876,0.00139373883813461
0.7420000000000002,6690.126957550912,3.877054642588481,4725778.696076675,290.16115291600306,2865.6007176960175,43.88826628778223,2.049000285157829,0.0014708952071157953
0.7820000000000003,6683.215325049522,3.910301734371137,4720918.339467396,290.11653303841223,2877.577344962241,43.75177390250744,2.0510060339082834,0.0015476819953463834
0.8220000000000003,6676.76836075842,3.9432157281426004,4716053.073534115,290.07183317099026,2889.4333246826327,43.61547742172768,2.053007247514672,0.0016241077129817397
0.8620000000000003,6670.124397824775,3.9765574912459796,4711183.187689658,290.02705581227315,2901.4400206039422,43.47938371866877,2.055003741690683,0.001700173046335698
0.9020000000000004,6663.768377099423,4.009763770161628,4706308.519185386,289.9821993061242,2913.3956316017907,43.34348757483521,2.0569955331140206,0.0017758842735927471
0.9420000000000004,6656.042375254046,4.0432561169229455,4701429.237830439,289.9372650548838,2924.1060269082654,43.20779269335677,2.058982492906068,0.0018512434299085227
0.9820000000000004,6646.3371160675315,4.077219178799571,4696545.266160993,289.89225218532624,2933.6357031891284,43.07229620660157,2.0609646017561665,0.0019262555375099174
1.0220000000000005,6636.287848702976,4.111188596427234,4691656.111528579,289.8471559903034,2943.1615461649144,42.936984304403985,2.0629420209421507,0.0020009305708426207
1.0620000000000005,6626.523558367767,4.144975768015429,4686761.513508702,289.80197389217,2952.6343656424624,42.801849463266926,2.0649148090187035,0.002075275467178657
1.1020000000000005,6616.6858623949765,4.179050162655098,4681861.623452604,289.75670711059905,2962.1843485092145,42.66689510695347,2.066882846122366,0.002149292044632421
1.1420000000000006,6607.027271685332,4.213122747278846,4676956.366656881,289.71135477813976,2971.7316536168637,42.532118706701866,2.068846111117142,0.002222984794232356
1.1820000000000006,6597.372494681598,4.247400347130147,4672045.829426449,289.6659175148455,2981.333444563096,42.397522004627056,2.0708045141492426,0.0022963561891561446
1.2220000000000006,6587.840292747502,4.281741777529808,4667129.986438095,289.6203949084736,2990.950759045711,42.26310382722927,2.0727580141551756,0.0023694099748273376
1.2620000000000007,6578.346725248846,4.316247563676871,4662208.88845768,289.57478725078346,3000.611357636523,42.12886502107317,2.0747065382061822,0.002442148919178844
1.3020000000000007,6570.327471478474,4.35085000829688,4657282.532628528,289.5290943367702,3008.6362214498663,41.994805049109445,2.076650037002977,0.0025145763617533856
1.3420000000000007,6562.004445971443,4.386262552840242,4652350.952146971,289.483316295434,3015.9323596130043,41.860924337498545,2.0785884466119255,0.0025866951514225203
1.3820000000000008,6553.761627178703,4.421252316983187,4647413.404978865,289.43744605119775,3023.1376438692346,41.727203219282444,2.0805220297012723,0.002658517082538183
1.4220000000000008,6545.507522266895,4.45643869440646,4642469.925351437,289.3914837257914,3030.3801110398467,41.59364231759818,2.082450719807262,0.0027300447326962544
1.4620000000000009,6537.356318530407,4.49169932835475,4637520.474682874,289.3454287633933,3037.6353010943703,41.46024038987845,2.0843744815734517,0.002801281463861447
1.502000000000001,6529.23891088148,4.527136942730752,4632565.093948688,289.29928134738987,3044.92397816012,41.326998274149354,2.0862932468459827,0.002872229659947364
1.542000000000001,6521.197771806968,4.562690194775652,4627603.77555665,289.2530412087416,3052.2337842924367,41.193915571644176,2.0882069683273476,0.002942892209538937
1.582000000000001,6513.536556220683,4.598400711269469,4622636.541995307,289.2067083580548,3059.5727605850902,41.06099267750778,2.09011558674601,0.003013271603032799
1.622000000000001,6508.3248581426615,4.634244917695536,4617663.395837498,289.1602826197972,3066.684204527787,40.92822949217478,2.0920190516197876,0.0030833705056945333
1.662000000000001,6507.1331659539555,4.67032136534,4612684.350791369,289.113763921764,3071.7968032772483,40.795626219360685,2.0939173083795657,0.0031531914055160635
1.702000000000001,6504.910799644156,4.707078508559939,4607699.32537135,289.06715130086053,3076.9954469492823,40.66318065410824,2.0958103417812977,0.003222737802215037
1.742000000000001,6502.54391818422,4.743194549335547,4602707.688156642,289.0204386421532,3082.1036609016583,40.530876654308216,2.0976983597273726,0.0032920192207578293
1.7820000000000011,6499.567256572027,4.779902492064959,4597709.775153841,288.97362887494666,3087.291341379433,40.39872277047139,2.099581175301555,0.003361034327560339
1.8220000000000012,6496.242155047554,4.816504936084722,4592705.394413226,288.9267199870991,3092.4626954863343,40.26671413738965,2.1014588167594126,0.003429787610210364
1.8620000000000012,6492.3744848740225,4.853417756495853,4587694.665663011,288.87971288477274,3097.674832047129,40.134853817272614,2.1033311864870985,0.0034982800663163963
1.9020000000000012,6488.0545511998125,4.890398656330433,4582677.525472969,288.832606756519,3102.894511897591,40.00314024918708,2.1051982611813167,0.003566514664919654
1.9420000000000013,6483.200387364338,4.9275925622145165,4577654.016697652,288.7854017871429,3108.1416121597204,39.871574573003656,2.1070599752052033,0.003634493169708228
1.9820000000000013,6469.940707215943,4.964916961583623,4572624.119407246,288.73809757114316,3111.7579424572345,39.74015636071564,2.1089162884264114,0.0037022179867179563
2.022000000000001,6453.0773404822985,5.00401953819784,4567587.849477734,288.6906940386171,3115.272243322555,39.60888609957148,2.1107671467976488,0.003769691093714686
2.062000000000001,6437.317921709936,5.04151105040255,4562543.587389561,288.6431757069163,3118.6419706922657,39.47772348658434,2.112613139225416,0.003836931837528454
2.102000000000001,6421.2576196970285,5.079826544946325,4557491.835545065,288.59554705553194,3122.0818180295296,39.34668142353992,2.11445401410245,0.003903936710765466
2.1420000000000012,6405.51417176477,5.118023613245089,4552432.347950726,288.5478055137965,3125.5096911100964,39.21575412461703,2.1162898149739284,0.003970710164184498
2.1820000000000013,6389.803565326116,5.156541467832505,4547365.22313613,288.4999517571377,3128.963824482499,39.08494440985095,2.118120450386158,0.004037252950549907
2.2220000000000013,6374.256314558693,5.195180553198539,4542290.400800276,288.4519849610626,3132.4247425166304,38.95425116348905,2.119945891154901,0.004103567467290178
2.2620000000000013,6358.770708393399,5.234056653121972,4537207.892303337,288.40390497618023,3135.90335163243,38.823675063563165,2.12176608039446,0.004169655323143487
2.3020000000000014,6356.572189406334,5.273039775791239,4532117.654587609,288.355711136842,3137.9311080886478,38.69321545896963,2.123580982384854,0.004235518659882344
2.3420000000000014,6354.1278138478165,5.31275924397647,4527019.729356376,288.30740357835765,3139.978043352123,38.562873801200716,2.1253905290485804,0.0043011587085014244
2.3820000000000014,6352.053151336705,5.352060397979881,4521913.620485458,288.2589773332661,3142.0035277948477,38.43263837268077,2.1271948569679306,0.004366582179978423
2.4220000000000015,6350.14605901227,5.3918171795517065,4516799.516538991,288.21043391871586,3144.0505765156518,38.302514309574676,2.1289938408882283,0.004431788687095676
2.4620000000000015,6348.494108965626,5.431667089886726,4511677.318051233,288.1617721191888,3146.101313917109,38.17249969525798,2.1307874653960255,0.004496780770155104
2.5020000000000016,6347.071919958421,5.4717614232245735,4506547.042334211,288.1129918254934,3148.163192599278,38.04259548666441,2.132575670884554,0.004561559745318181
2.5420000000000016,6345.898727845736,5.512041560401705,4501408.658610471,288.06409246987454,3150.2333177873356,37.91280148078722,2.1343584159972186,0.004626127388001468
2.5820000000000016,6341.5231899785795,5.552534057668342,4496262.1546610305,288.015073659111,3151.8734044026737,37.78311794134758,2.1361356524807076,0.004690485256373693
2.6220000000000017,6331.701084153198,5.593503897902192,4491107.510071999,287.9659349201155,3152.8593076790175,37.6535449472495,2.1379073352191384,0.004754634962296958
2.6620000000000017,6321.524997841703,5.634774476128199,4485944.4544875845,287.9166733920386,3153.846880857226,37.52407657075622,2.1396735110483522,0.004818580560167158
2.7020000000000017,6311.529759078381,5.675890904336533,4480772.685288715,287.8672858954997,3154.8309159389323,37.394706180017344,2.141434236946105,0.004882326346192225
2.7420000000000018,6301.517538225473,5.717371130373458,4475592.294814861,287.8177730162151,3155.8228440254784,37.26543669158148,2.143189424114908,0.00494587266862203
2.782000000000002,6291.55314613709,5.759023625472318,4470403.21920919,287.768133846699,3156.814894640715,37.13715956586817,2.144965621229566,0.005009221393222741
2.822000000000002,6281.946379037664,5.796689535193842,4465205.445914714,287.7183679672679,3157.701791599752,37.01419956963959,2.1468919570476634,0.005072380770255233
2.862000000000002,6274.258784231744,5.810019649426714,4459999.302806914,287.6684782201052,3157.954604742251,36.89131647109009,2.148812179141214,0.005135388955907075
2.902000000000002,6266.36142383433,5.82539255570498,4454786.823040573,287.6184838200259,3158.2593956053006,36.76855768545704,2.150725464367696,0.005198226834527365
2.942000000000002,6257.874382804521,5.840506754993408,4449567.767633407,287.5683822277463,3158.516155972899,36.6459184750115,2.1526318756550897,0.0052608973731705505
2.982000000000002,6245.542663905287,5.855646603145172,4444342.140410389,287.51817322875337,3158.5209278232587,36.52339967023461,2.154531381621704,0.005323401175042338
3.022000000000002,6233.093432595077,5.870857169402369,4439109.885107868,287.4678560294196,3158.5237793218544,36.40100074082957,2.1564239738180597,0.005385739406489216
3.062000000000002,6220.80808549382,5.885881398669432,4433870.85704296,287.417428981618,3158.5256894576887,36.27871916978725,2.1583096768856667,0.005447914054246496
3.102000000000002,6208.557518148707,5.900925266427484,4428625.070683316,287.36689196501555,3158.5272703927435,36.15655606432221,2.160188454633877,0.005509925573057181
3.142000000000002,6196.378336001645,5.9159212197459405,4423372.484236081,287.31624431586187,3158.528262823214,36.03451126391873,2.1620602921166183,0.0055717749403204455
3.182000000000002,6184.259740347185,5.930887585946188,4418113.07106394,287.26548551410536,3158.5287418021207,35.912584959434916,2.1639251685184946,0.005633462977155079
3.222000000000002,6172.202940099209,5.945819970620136,4412846.800393555,287.2146149975965,3158.5286873213586,35.79077725667791,2.165783064442318,0.005694990531293507
3.2620000000000022,6160.206322141159,5.960719523239295,4407573.642072842,287.1636322079092,3158.528103449705,35.66908828385209,2.1676339601160333,0.005756358432295083
3.3020000000000023,6148.268937539069,5.975586100760465,4402293.565453807,287.1125365795356,3158.526988498938,35.547518166437854,2.1694778358075615,0.0058175675021639095
3.3420000000000023,6136.389712719957,5.990419848444418,4397006.539642262,287.0613275422685,3158.525342082476,35.426067032852394,2.1713146717283274,0.00587861855311997
3.3820000000000023,6124.567622177243,6.005220845925787,4391712.53343997,287.0100045206128,3158.5231635069977,35.30473501320173,2.1731444480512945,0.00593951238824587
3.4220000000000024,6112.8016509874515,6.01998918444954,4386411.515354129,286.9585669338477,3158.520452128434,35.183522239542754,2.1749671449040697,0.0060002498015032015
3.4620000000000024,6101.0908199182395,6.0347249504317375,4381103.453592328,286.90701419594745,3158.5159169058347,35.062428845823376,2.1767827423673523,0.006060831577880268
3.5020000000000024,6089.433394279012,6.049428756930618,4375788.316060476,286.85534571553126,3158.5092555858105,34.941454967890266,2.178591220472298,0.006121258493509518
3.5420000000000025,6077.828564508109,6.064100197914886,4370466.069894165,286.80356089127025,3158.5020486654494,34.82060073322308,2.1803925593639932,0.006181531320000003
3.5820000000000025,6066.2762457699055,6.078738767353779,4365136.68197994,286.7516591169146,3158.4943016412144,34.69986627256178,2.1821867391092193,0.006241650819754245
3.6220000000000026,6054.775079843438,6.093345291991464,4359800.119458991,286.69963978617636,3158.48601583342,34.579251730989334,2.183973739516185,0.006301617741552511
3.6620000000000026,6043.324271524387,6.107919600176435,4354456.348955055,286.64750228518596,3158.477189494181,34.45875725096393,2.1857535404069535,0.006361432827638241
3.7020000000000026,6031.922887610325,6.122461831472975,4349105.336830718,286.5952459949548,3158.4678220998853,34.33838297802376,2.1875261215228674,0.006421096811486287
3.7420000000000027,6020.570045034432,6.136972044862792,4343747.049117414,286.54287029065995,3158.4579127699094,34.21812905931142,2.189291462545998,0.006480610418515947
3.7820000000000027,6011.591360674856,6.151450315111013,4338381.451527663,286.4903745417302,3158.2958213123675,34.097995643907154,2.191049543091474,0.006539974366060742
3.8220000000000027,6003.2541462564695,6.165974450747081,4333008.509448838,286.43775811175107,3158.08488001318,33.977982882757765,2.192800342706329,0.006599189363501787
3.8620000000000028,5994.9189250677355,6.180401620838983,4327628.119896123,286.3850196911244,3157.874384915879,33.858089457946264,2.1945438640886628,0.006658256708572282
