time,thrust,OF,ox_tank.pressure,ox_tank.temperature,combustion_chamber.temperature,propellant_mass,propellant_CG,combustion_chamber.fuel_grain.geometry.length_regressed
0.007,248.29103956110006,5.012674124128977,4808001.498330065,290.91075872419333,2752.7047046286298,53.79106667046341,1.8387240737378,1.5060580776209829e-05
0.014,1117.0009538768934,4.732795704222,4806800.620790096,290.8998809986315,2869.1287320403003,53.753219126126915,1.8395047814720147,3.00395002177623e-05
0.021,2359.090986896058,4.683015876768617,4805673.475968982,290.8896692733293,2904.2984252083183,53.71764229580119,1.8402352590278617,4.426231529081744e-05
0.028,3354.0049315305955,4.651206807065009,4804615.001755979,290.88007803167,2921.44011692458,53.68418211734216,1.8409191019044784,5.7773475233792454e-05
0.035,4131.245099202628,4.630744081934717,4803616.78448363,290.8710313281107,2931.5121853913256,53.65258166522854,1.8415621221289553,7.065294316163117e-05
0.042,4733.43569067043,4.619379036430098,4802669.842315226,290.8624480014711,2937.6484760299545,53.62256609829447,1.8421704677155424,8.298868625340394e-05
0.049,5196.04120084736,4.615817847194035,4801765.48273881,290.8542494521938,2942.584351725103,53.59386893849182,1.8427500506554326,9.486779800349831e-05
0.056,5547.15161407506,4.617339365216683,4800895.619809867,290.8463625267276,2946.8180279041503,53.56624189601183,1.8433063412895163,0.0001063728568898127
0.063,5811.490096965706,4.6222287984812835,4800053.193083519,290.8387233251047,2950.593697293153,53.53946787197298,1.8438440968897896,0.00011757705944364269
0.07,6005.933754694751,4.6289968315624055,4799232.230570093,290.8312777815097,2953.959185879448,53.513363031999695,1.8443673279702688,0.00012854306947142366
0.07700000000000001,6154.764725638389,4.636605082059035,4798427.832685667,290.82398152740416,2956.562127010942,53.48777642394913,1.844879316000732,0.00013932278595594293
0.08400000000000002,6265.380572674397,4.64444061269347,4797636.076749468,290.8167990327976,2958.7227048978207,53.462587117120876,1.8453826824146695,0.0001499580625640771
0.09100000000000003,6347.360090998606,4.652126462459019,4796853.876865254,290.80970234139704,2960.571165475833,53.43769993673024,1.845879485712729,0.0001604820054025885
0.09800000000000003,6407.9394465761925,4.659481968723289,4796078.844793402,290.8026698133691,2962.169744327232,53.41304120514537,1.846371316636644,0.00017092033975480987
0.10500000000000004,6448.313438612184,4.666471450354808,4795309.157041741,290.79568492333726,2963.562735098869,53.38855465922076,1.8468593882574846,0.00018129276541762785
0.11200000000000004,6474.095991062707,4.673125507680853,4794543.433130354,290.788735158753,2964.793495243398,53.36419770301696,1.8473446179568367,0.00019161422752740596
0.11900000000000005,6493.317863953509,4.679492893078416,4793780.633287382,290.7818110937538,2965.9025098335405,53.33993825474409,1.847827696050806,0.00020189599935981653
0.12600000000000006,6507.597958610902,4.68561796354837,4793019.977423616,290.7749056554774,2966.9168495515783,53.31575224750594,1.8483091400025398,0.00021214654750997898
0.13300000000000006,6518.170231582268,4.691549959128715,4792260.883276337,290.76801356386795,2967.858983655644,53.29162172021767,1.848789335738339,0.0002223721964147383
0.14000000000000007,6525.967960093221,4.697331568178425,4791502.917421331,290.7611308879139,2968.7465000592642,53.267533305354355,1.8492685703082565,0.0002325776568964925
0.14700000000000008,6531.693235591971,4.702997938335446,4790745.757876976,290.7542547068369,2969.592961158291,53.243477074406,1.8497470567862502,0.00024276643077694924
0.15400000000000008,6535.8722032455025,4.708577064908582,4789989.165804448,290.7473828536519,2970.4087093952185,53.21944566415432,1.8502249530937984,0.00025294111763348717
0.1610000000000001,6538.89806538082,4.71409076191661,4789232.964230729,290.7405137223368,2971.201568075611,53.19543361981596,1.850702376139727,0.00026310364568933473
0.1680000000000001,6541.064088360874,4.7195557729872375,4788477.022127504,290.73364612352157,2971.97742006992,53.171436903596806,1.8511794123925298,0.0002732554446863866
0.1750000000000001,6542.588689263606,4.724984815216325,4787721.242539163,290.7267791768647,2972.7406700422403,53.14745252829488,1.8516561257585138,0.0002833975748213985
0.1820000000000001,6543.634371820802,4.730387475539444,4786965.553752558,290.7199122309939,2973.4946055050536,53.12347828483463,1.852132563437809,0.0002935308226420757
0.22200000000000011,6544.321949969436,4.735770942639379,4786209.9027413195,290.7130448040614,2974.2416745347605,53.09951254003144,1.852608760269422,0.00030365577222334615
0.2620000000000001,6538.00448219177,4.745086469044701,4781884.963356139,290.67372348064805,2975.4466425621918,52.96262672360753,1.8553272103146463,0.0003614161235606158
0.3020000000000001,6534.741646972625,4.775648560509935,4777555.681474186,290.6343355871381,2979.606262414102,52.82584791617482,1.8580414189412957,0.00041896659559676147
0.3420000000000001,6532.435051390076,4.805387306997351,4773222.129733805,290.59488166428866,2983.665737304527,52.68917829931189,1.8607513034138863,0.0004763083679553994
0.38200000000000006,6529.208911182104,4.836442880379646,4768885.164260796,290.55536939475536,2987.8976356674184,52.55264388644979,1.8634562738964464,0.0005334343568192347
0.42200000000000004,6526.029788829021,4.866838251517996,4764544.332033857,290.51579454291283,2992.0413390769977,52.41623077115876,1.8661565933380786,0.0005903513157076917
0.462,6522.267318484811,4.897723456550301,4760199.913207519,290.4761595525603,2996.2480037076625,52.279947380934985,1.8688520491113447,0.0006470582327113723
0.502,6518.300867789263,4.928405031526244,4755851.745269589,290.43646283147365,3000.4265291600177,52.14378870076244,1.8715427155790627,0.0007035587075945638
0.542,6507.18980528681,4.959300353835665,4751499.929628426,290.39670519492046,3003.3157978965505,52.00775773552128,1.8742284970442955,0.0007598535488251068
0.5820000000000001,6493.015088426304,4.991417437278006,4747144.409666089,290.35688601515716,3006.100592244089,51.87185271475805,1.8769093999348954,0.0008159451755734735
0.6220000000000001,6479.8026176057365,5.022221660896967,4742784.121928031,290.3169954482563,3008.772784850936,51.73604157363464,1.8795860728835845,0.0008718462724008626
0.6620000000000001,6466.297591349881,5.053617469951068,4738419.418949354,290.27703659061126,3011.492921680534,51.60033504199467,1.8822582566226225,0.0009275548648661978
0.7020000000000002,6453.082695537186,5.084825911818457,4734050.126317969,290.2370077179149,3014.1962214329833,51.46472797497295,1.884926028946506,0.0009830743610553083
0.7420000000000002,6439.876377344644,5.116226117659934,4729676.324086839,290.1969094346376,3016.91420412998,51.32922289732461,1.8875893057337179,0.0010384055382520723
0.7820000000000003,6426.811313254914,5.147635903036065,4725297.969321553,290.15674121813254,3019.6317341167232,51.19381864959076,1.8902480813032996,0.0010935503973816111
0.8220000000000003,6413.823085751658,5.179143963792084,4720915.077597585,290.1165030815352,3022.3559254319853,51.05851583806575,1.8929023131423892,0.0011485103186904323
0.8620000000000003,6400.935577137292,5.210712378453657,4716527.636078475,290.0761947768,3025.0816088814177,50.92331422891513,1.8955519769470783,0.0012032869419657515
0.9020000000000004,6390.841898828672,5.242363691829542,4712135.6419560425,290.03581614730996,3027.5208149983114,50.7882138989431,1.898197042317686,0.0012578817793261856
0.9420000000000004,6388.826247307025,5.274134222860184,4707739.081950131,289.995366939526,3029.103672482802,50.653214623888985,1.9008374856302845,0.0013122964206309406
0.9820000000000004,6386.602408874953,5.306189758117785,4703337.90466182,289.95484654801567,3030.695680252595,50.51831506108592,1.9034733071367957,0.0013665328038789195
1.0220000000000005,6384.627315986437,5.337997415080206,4698931.891296561,289.914252822717,3032.2754783441665,50.38350893216831,1.9061046108121604,0.0014205944743801344
1.0620000000000005,6382.751047051598,5.370026031909117,4694521.133276482,289.8735864684965,3033.8648595501086,50.24879917908331,1.9087313074472472,0.0014744818905332528
1.1020000000000005,6381.0399046636385,5.402067628535151,4690105.582191688,289.8328469015144,3035.454128623329,50.11418460873195,1.9113533949604788,0.001528196861884299
1.1420000000000006,6379.469446433564,5.434213523521368,4685685.249785821,289.7920340917458,3037.0475419978266,49.979665817660056,1.913970834166915,0.0015817405858674029
1.1820000000000006,6378.053629921278,5.466425276369384,4681260.121495973,289.75114776581853,3038.643307387736,49.84524263483147,1.9165836023240703,0.0016351144935892745
1.2220000000000006,6376.790468166684,5.498720379741272,4676830.193613029,289.71018774985595,3040.242239451971,49.71091521868495,1.9191916701732168,0.0016883198884838488
1.2620000000000007,6375.684776153446,5.531092339732897,4672395.457399055,289.66915382282036,3041.844034855523,49.57668358889562,1.921795011713714,0.001741358100698498
1.3020000000000007,6368.889243747374,5.563544896662475,4667955.9058478,289.62804577896384,3042.7356915118435,49.44254782519806,1.9243936000444486,0.0017942304222419445
1.3420000000000007,6360.375133474033,5.596514827434867,4663511.530828107,289.5868634014027,3043.4938811427246,49.30850798338185,1.9269874091060797,0.001846938134838803
1.3820000000000008,6352.016791282082,5.629120039874035,4659061.975805154,289.54560324064,3044.2433530800245,49.174553974116535,1.9295766234999208,0.0018994857850435872
1.4220000000000008,6343.644099779248,5.661921352493668,4654607.3095541615,289.50426578519694,3044.99667424617,49.04068816139973,1.9321611692506286,0.0019518738501190065
1.4620000000000009,6335.313770588873,5.6947707395701626,4650147.496534251,289.46285055581626,3045.7506865603946,48.90690987259786,1.9347410357253219,0.0020041037756762087
1.502000000000001,6327.005552704932,5.727719023199691,4645682.5351825375,289.42135738759055,3046.5049692657235,48.77321943422435,1.9373161918787354,0.002056176667656669
1.542000000000001,6318.725487782071,5.760749693068,4641212.411668142,289.3797860008674,3047.2592343137017,48.639616824746284,1.939886614164799,0.0021080937282479434
1.582000000000001,6310.47087237088,5.793869095211778,4636737.115773712,289.33813614868683,3048.015028402744,48.50610213639183,1.9424522769695607,0.002159856107208355
1.622000000000001,6302.242587080073,5.827075664561018,4632256.635734535,289.2964075688158,3048.772321813467,48.37267542525903,1.9450131557026136,0.0022114649504031366
1.662000000000001,6287.560141092302,5.860371261555993,4627770.960264096,289.2546000025762,3049.1204766232054,48.239336769893235,1.9475692255813035,0.0022629213813184007
1.702000000000001,6269.381892192821,5.893982729083209,4623280.077523681,289.21271318524185,3049.25516209516,48.1060862414273,1.950120462239292,0.002314226510905336
1.742000000000001,6251.448370846299,5.927532855215964,4618783.802301332,289.1707452323202,3049.3883806971276,47.972918945578975,1.9526669433285215,0.0023653830078402827
1.7820000000000011,6233.788372389306,5.961135235311881,4614282.100154101,289.12869566244603,3049.521902625155,47.83983434922994,1.955208656950434,0.0024163921339491593
1.8220000000000012,6216.349691448992,5.994851500465665,4609774.971250579,289.08656431634193,3049.655759782744,47.706832921505,1.9577455708926481,0.0024672548194571327
1.8620000000000012,6199.144901839475,6.028655119263988,4605262.39723303,289.0443508607378,3049.789883186023,47.57391460851498,1.9602776638928165,0.002517972146566312
1.9020000000000012,6182.1644216570985,6.062555520380441,4600744.365452162,289.0020550146838,3049.924298271613,47.44107952829404,1.9628049113947323,0.002568545129755292
1.9420000000000013,6165.405285299502,6.096550951620815,4596220.8612454105,288.9596764773747,3050.0589966801144,47.30832774967877,1.9653272900669898,0.002618974785860723
1.9820000000000013,6148.862843401843,6.130642846555963,4591691.870154334,288.91721494887065,3050.19398025841,47.17565935565624,1.9678447765022662,0.0026692621143492184
2.022000000000001,6137.739347770275,6.164831772372451,4587157.377319315,288.8746701244166,3050.0043197558616,47.0430744260621,1.9703573475645135,0.002719408102988386
2.062000000000001,6128.537361022561,6.199281962070097,4582617.367641817,288.8320416959463,3049.6802070018766,46.910573042174875,1.9728649802894944,0.0027694137266307583
2.102000000000001,6119.346244127107,6.233706690455402,4578071.705632661,288.78932822263465,3049.355960557004,46.778151894454666,1.9753677205474176,0.002819280999861597
2.1420000000000012,6110.18502017513,6.268219384773967,4573520.371022976,288.74652934305976,3049.0296388960805,46.64581095298315,1.9778655477149993,0.002869010900665428
2.1820000000000013,6101.038710083873,6.30284338639124,4568963.353209495,288.70364478553984,3048.7008532036502,46.51355046877818,1.980358435666299,0.0029186043082352776
2.2220000000000013,6091.9114575346175,6.337566491604391,4564400.632817346,288.6606741947662,3048.371347283916,46.381370453529854,1.98284636329427,0.002968062164477839
2.2620000000000013,6082.802818784062,6.372392505592818,4559832.192820653,288.6176172363348,3048.041092436477,46.24927099344993,1.9853293081540337,0.003017385376879064
2.3020000000000014,6073.712337422657,6.407322206396556,4555258.015829781,288.57447357122624,3047.710076864201,46.11725217269552,1.9878072480074471,0.0030665748424481454
2.3420000000000014,6064.6397283969845,6.442356262123501,4550678.084110645,288.5312428559677,3047.3782918449624,45.98531407392149,1.9902801608065857,0.003115631447730113
2.3820000000000014,6066.622107954307,6.477495499970133,4546092.379681105,288.48792474352456,3046.71133803461,45.853456780978675,1.9927480246344065,0.0031645560681610465
2.4220000000000015,6068.900342319636,6.512878912002451,4541500.884276416,288.44451888295686,3046.037638314782,45.72168037794048,1.9952108177194536,0.003213349568549392
2.4620000000000015,6071.597076766647,6.5482120171196785,4536903.481565154,288.40102399393743,3045.3655811103313,45.58998223304406,1.9976685726917012,0.0032620136296317753
2.5020000000000016,6074.729898000799,6.583701842916707,4532300.185699577,288.3574400279309,3044.6910223656487,45.4583633601522,2.0001212492726084,0.003310548808073897
2.5420000000000016,6078.311479346634,6.619290769347107,4527690.969837069,288.31376654748294,3044.0150350112926,45.326823639973156,2.002568829998702,0.003358955996277992
2.5820000000000016,6082.363596848563,6.654990897267524,4523075.815283926,288.270003190911,3043.337403543027,45.195363187935776,2.0050112928432897,0.0034072360053377824
2.6220000000000017,6086.906629580232,6.69080167763225,4518454.701918749,288.22614958167753,3042.6581320359005,45.0639820880028,2.0074486165329395,0.0034553896462616767
2.6620000000000017,6091.962696628503,6.726723906944672,4513827.609369961,288.18220533951654,3041.977204637,44.93268042537718,2.009880779889811,0.003503417720182768
2.7020000000000017,6086.9936688149655,6.76275847144496,4509194.517023747,288.1381700804918,3041.1683286191974,44.80145828672477,2.0123077618230374,0.0035513210184500406
2.7420000000000018,6071.940261746895,6.798943192503768,4504555.403970885,288.09404341647314,3040.2335011298596,44.67031575871902,2.014729541353388,0.003599100323220305
2.782000000000002,6056.9461977765895,6.835235951759577,4499910.223671275,288.0498247138479,3039.293980214763,44.539252234658,2.017146111290358,0.003646756615111424
2.822000000000002,6042.051844040155,6.871615907899359,4495258.938548491,288.00551342226066,3038.351701611776,44.40826736599108,2.019557459374004,0.003694290787060514
2.862000000000002,6027.23717023233,6.908121608301573,4490601.532942589,287.96110919847376,3037.406827713026,44.27736141316311,2.0219635614100997,0.003741703540699249
2.902000000000002,6012.505853079803,6.944742114134361,4485937.983053097,287.9166116202698,3036.4596372811397,44.146534421952836,2.0243643975357952,0.003788995633343683
2.942000000000002,5997.856384019476,6.981480554067449,4481268.266482224,287.87202027730314,3035.5100530511145,44.015786484736296,2.026759947059719,0.00383616779992229
2.982000000000002,5983.287889198488,7.018337589809379,4476592.360360331,287.8273347532215,3034.558056069326,43.88511768925357,2.0291501894681705,0.003883220768427743
3.022000000000002,5969.964049364511,7.055314035899433,4471910.241510709,287.78255462721546,3033.5591530078395,43.754528123142485,2.031535104331904,0.00393015525869257
3.062000000000002,5960.3728579140525,7.092419797014327,4467221.88648154,287.73767947430275,3032.4155387193887,43.624017874833655,2.033914671284795,0.003976971982252177
3.102000000000002,5950.760212042182,7.1296659918696434,4462527.265541981,287.69270880777276,3031.26803035707,43.49358687171146,2.0362888731719386,0.004023671690142932
3.142000000000002,5941.164242443361,7.167005340049832,4457826.337154104,287.6476420259203,3030.1184696034124,43.363234732929165,2.038657698881076,0.0040702552158338665
3.182000000000002,5931.573928479726,7.204475977622332,4453119.082115663,287.60247873929296,3028.9656649258936,43.23296168937159,2.0410211254324935,0.004116723204539152
3.222000000000002,5921.990464609324,7.242069613555487,4448405.474509782,287.5572184924783,3027.809858587459,43.10276779917402,2.043379133275671,0.004163076344825094
3.2620000000000022,5912.413659369176,7.2797881633653505,4443685.489004224,287.5118608340079,3026.650996934848,42.97265314469131,2.0457317024473265,0.0042093153106605415
3.3020000000000023,5902.843162520413,7.317632654257627,4438959.100004943,287.4664053082256,3025.4890479618407,42.84261780970757,2.0480788130119136,0.004255440768247379
3.3420000000000023,5893.256547228696,7.355603899169636,4434226.28156207,287.4208514543607,3024.297749191452,42.712661876961306,2.0504204451060315,0.004301453376856014
3.3820000000000023,5883.580583601265,7.393701626970848,4429487.007436917,287.37519880714876,3022.989256928258,42.58278542998306,2.052756578899402,0.004347353788397015
3.4220000000000024,5873.915950996434,7.431923320532355,4424741.251855662,287.3294469040783,3021.6750212023476,42.452988573144694,2.055087194206452,0.004393142641713377
3.4620000000000024,5864.259357724017,7.470276205244763,4419988.991546038,287.28359530505554,3020.3562690443814,42.32327148547196,2.0574122694546584,0.004438820547158947
3.5020000000000024,5854.609186745534,7.508760193780694,4415230.201117906,287.2376435478671,3019.033945747883,42.19363429780434,2.0597317840450544,0.004484388122406329
3.5420000000000025,5844.964396170879,7.54737592493503,4410464.854059362,287.1915911577159,3017.7080175636,42.06407711960044,2.062045717828657,0.004529845984681664
3.5820000000000025,5835.325041142643,7.586123440274648,4405692.923076735,287.14543765045545,3016.378485522013,41.93460004815281,2.064354050923814,0.004575194748151196
3.6220000000000026,5825.6908368517325,7.625003940361057,4400914.380748221,287.0991825388764,3015.0453101233466,41.80520318594483,2.066656763380458,0.00462043501899581
3.6620000000000026,5816.032502827123,7.664018327713868,4396129.199316117,287.0528253306757,3013.6718218699707,41.675886635204066,2.0689538352812877,0.00466556739708198
3.7020000000000026,5806.33098949621,7.703160725618655,4391337.350711686,287.00636552867206,3012.2255145343597,41.546650498613225,2.071245246725055,0.004710592475850055
3.7420000000000027,5796.64530132176,7.74243323018883,4386538.810812124,286.9598026721055,3010.7755546154913,41.41749499062098,2.073530975716311,0.004755510810582335
3.7820000000000027,5786.960423055328,7.781854570405444,4381733.557839125,286.9131363212235,3009.321097418846,41.28842039462179,2.075810998991113,0.004800322930999777
3.8220000000000027,5777.280027190027,7.821410348070649,4376921.560758301,286.8663659445643,3007.8626783659533,41.15942676034526,2.0780852977334794,0.004845029427730883
3.8620000000000028,5767.6035471687555,7.86110491917988,4372102.7905799905,286.8194910285481,3006.400146268606,41.030514199819756,2.0803538519597637,0.004889630867632761
