time,thrust,OF,ox_tank.pressure,ox_tank.temperature,combustion_chamber.temperature,propellant_mass,propellant_CG,combustion_chamber.fuel_grain.geometry.length_regressed
0.007,238.16299597142677,5.297469117197332,4263668.881615309,285.75429687566583,2722.9079594571995,53.189538498853445,1.921027172295137,1.2430860254768947e-05
0.014,923.5579824134873,4.988708473145727,4262691.028764748,285.7445991089112,2845.787468578625,53.15478523942262,1.9217003800798864,2.479903984638878e-05
0.021,2014.9355361550702,4.909544685615023,4261775.11056248,285.73551406269814,2882.7743839946947,53.12216107274646,1.9223284472902098,3.6579277964854574e-05
0.028,2890.189114327183,4.850858731030717,4260916.868887983,285.72699978670477,2898.584051041814,53.091522214861435,1.9229146226273093,4.780326160123545e-05
0.035,3554.19469306988,4.806550356553378,4260109.192624294,285.7189859774506,2906.8695467220837,53.06262687261746,1.9234641751256976,5.8531485878495037e-05
0.042,4105.144297186937,4.774751232422127,4259344.482700347,285.71139743433747,2911.8048353715476,53.035215799051954,1.9239826801906075,6.883171293382518e-05
0.049,4511.861183632445,4.7534180725337345,4258615.356330898,285.70416105216526,2915.1184840750007,53.00903641464046,1.9244755161440361,7.877212580928894e-05
0.056,4820.541834079253,4.74046306312777,4257915.044904361,285.69720977727184,2917.652248930737,52.983856588317835,1.9249475860287857,8.841701808218547e-05
0.063,5053.59864372859,4.733362056892024,4257237.591505158,285.6904845762011,2919.7136346189377,52.95947160688417,1.925403184843637,9.782427979000128e-05
0.07,5227.775159478214,4.730518082678535,4256577.994049238,285.6839358645465,2921.480710062619,52.935709285551496,1.9258459058771602,0.00010704339846019284
0.07700000000000001,5357.077986845049,4.730415308928104,4255932.142981443,285.67752289572866,2923.017858301747,52.91242797842993,1.9262786922381603,0.00011611561256182315
0.08400000000000002,5453.910049573805,4.732050957404024,4255296.756578762,285.6712131247716,2924.360319327256,52.88951446152648,1.926703888424099,0.0001250742140952612
0.09100000000000003,5525.590044927654,4.734758490108631,4254669.264395912,285.66498105603034,2925.5382278517886,52.866879987735146,1.9271233271539294,0.00013394549585981638
0.09800000000000003,5578.479131772722,4.738113932522697,4254047.683036189,285.6588070135476,2926.5822648357816,52.84445604494974,1.9275384203065526,0.0001427498716123592
0.10500000000000004,5617.3781309675705,4.741856351198293,4253430.499549345,285.6526759861408,2927.520268824822,52.822190355518146,1.927950243448849,0.00015150298425416228
0.11200000000000004,5645.904628755906,4.745828820464657,4252816.569855205,285.6465766208842,2928.368090848453,52.80004338094562,1.9283596090158113,0.00016021670210288475
0.11900000000000005,5666.719836371532,4.749955022978116,4252205.034463584,285.64050038772115,2929.1467780757666,52.777985416248114,1.9287671267720028,0.00016889996253268978
0.12600000000000006,5681.795184592521,4.754176689327491,4251595.248698972,285.6344408876326,2929.87515401833,52.7559941814813,1.9291732536941144,0.00017755948053028672
0.13300000000000006,5692.63600888694,4.758443105936978,4250986.730742519,285.62839333741374,2930.5629141044255,52.734053026724084,1.9295783310528436,0.00018620028081081178
0.14000000000000007,5700.35580291052,4.762736514865746,4250379.123440518,285.6223541909404,2931.2198685423655,52.712149611747066,1.9299826116373655,0.00019482609143950608
0.14700000000000008,5705.776870458614,4.767046522597252,4249772.162590365,285.61632082457544,2931.8536380589558,52.69027480952408,1.9303862823147977,0.00020343967233000545
0.15400000000000008,5709.505801872366,4.771367047065751,4249165.653057835,285.61029130022655,2932.4700666405406,52.668421880389396,1.930789481000609,0.00021204306338489385
0.1610000000000001,5711.989686934505,4.775694485871684,4248559.450892656,285.60426418789115,2933.073587736959,52.646585853595596,1.9311923093554204,0.00022063777069393639
0.1680000000000001,5713.557846083485,4.78002667256359,4247953.449999287,285.59823843338273,2933.667538584853,52.6247630664167,1.931594842240771,0.00022922490548791516
0.1750000000000001,5714.452735593713,4.784362280864419,4247347.572237291,285.5922132600798,2934.254417024932,52.60295082187944,1.9319971347372997,0.00023780528741892596
0.1820000000000001,5714.852793772887,4.788700482888258,4246741.760087813,285.5861880961339,2934.836084883574,52.58114713525388,1.932399227340743,0.0002463795210984003
0.22200000000000011,5714.889306812059,4.793040751372412,4246135.971231265,285.5801625206424,2935.4139257036577,52.559350546648616,1.9328011498017554,0.00025494805269328
0.2620000000000001,5707.9113903436155,4.800678090871201,4242668.554920035,285.5456609268228,2936.350768177356,52.434848478194915,1.9350962501315867,0.0003038430987706464
0.3020000000000001,5701.820169787792,4.825456689950278,4239197.588362393,285.5111028692421,2939.576397135573,52.31043045039797,1.9373887956996723,0.00035259718110527846
0.3420000000000001,5696.604330127226,4.84986650118052,4235723.255901953,285.4764900915884,2942.761480501096,52.18610283853761,1.9396786334943432,0.0004012094539917207
0.38200000000000006,5690.987354411861,4.875051625972295,4232245.98463946,285.44182676243764,2946.0434678456145,52.06188026315674,1.9419654431162612,0.00044967661675204655
0.42200000000000004,5685.680620002022,4.899840798505997,4228765.556980642,285.40711062795816,2949.274938697861,51.93775530791862,1.944249353970475,0.0004980019493573517
0.462,5680.245814584097,4.924928236727642,4225282.122679036,285.3723430962677,2952.5430177720486,51.81373309829978,1.9465302401512943,0.0005461849750833369
0.502,5674.472664814587,4.9498864021575075,4221795.605330608,285.3375233195717,2954.963695026603,51.68981105828638,1.9488081329436024,0.0005942274978290668
0.542,5667.726566592987,4.9757486514626725,4218306.066851221,285.30265183059987,2957.097529294762,51.56599132205388,1.9510829680596204,0.0006421299090976852
0.5820000000000001,5661.494119848444,5.000992141847126,4214812.942607992,285.26772289632817,2959.178380311375,51.44225482043517,1.9533551122503603,0.00068989884473849
0.6220000000000001,5655.591081338534,5.0263991010020845,4211316.283146534,285.2327369265442,2961.2709819191937,51.318603391707704,1.955624507167687,0.0007375347265150298
0.6620000000000001,5650.110706024883,5.051794265836435,4207816.040566296,285.1976933460491,2963.361544029186,51.19503554949813,1.9578911622546518,0.0007850389446139252
0.7020000000000002,5645.011425643131,5.077269148082725,4204312.217683451,285.16259208636995,2965.457260519984,51.0715515313235,1.96015505218497,0.0008324123682270576
0.7420000000000002,5639.12518073312,5.102777886843557,4200804.791063833,285.12743281556055,2967.552369845912,50.94815069761244,1.9624161696582392,0.0008796561116012369
0.7820000000000003,5633.05050770236,5.128405333445644,4197293.750158924,285.09221533005376,2969.6547804247402,50.824832852067075,1.9646744986082938,0.0009267711463537801
0.8220000000000003,5627.034409443111,5.153988209128706,4193779.035802393,285.0569389375717,2971.7527139213557,50.70159617743228,1.966930055980606,0.0009737589039082801
0.8620000000000003,5621.0181860634875,5.1796560163579475,4190260.6657329206,285.021603716621,2973.856424929686,50.57844144730342,1.9691828064819759,0.0010206200473979227
0.9020000000000004,5615.02950382371,5.205352495647234,4186738.625506122,284.98620942229894,2975.961493519535,50.45536836208705,1.971432736764875,0.0010673555418704793
0.9420000000000004,5609.05487605029,5.231105075572817,4183212.915737662,284.9507559604884,2978.070074025915,50.33237713278671,1.9736798233803088,0.0011139661931017695
0.9820000000000004,5603.372670576287,5.256901306445657,4179683.529657149,284.91524316240685,2979.3901788779285,50.20946772965402,1.9759240479635172,0.0011604528661994446
1.0220000000000005,5597.436743315274,5.282992546715275,4176150.4637460513,284.8796708915109,2980.6063213575007,50.08664023762719,1.9781653900487306,0.001206816382679859
1.0620000000000005,5591.61007577394,5.308875287888999,4172613.5484349364,284.8440373373736,2981.8125136757444,49.96388923804088,1.9804039402118823,0.001253059135842859
1.1020000000000005,5585.7634932519195,5.334899096754749,4169072.831062903,284.80834287226656,2983.024366198754,49.841216538999674,1.9826396434842213,0.001299181423074217
1.1420000000000006,5579.953401417304,5.360933845107443,4165528.284025919,284.7725871130814,2984.236189772443,49.71862146478806,1.9848724951442542,0.0013451842472083436
1.1820000000000006,5574.154948822621,5.387036681153628,4161979.911838827,284.73676999995126,2985.450478923206,49.59610441091037,1.9871024690984358,0.001391068293787723
1.2220000000000006,5568.378569489807,5.413183237546623,4158427.7047994137,284.7008913291192,2986.6661693720507,49.473665307960914,1.9893295487986573,0.0014368343723023512
1.2620000000000007,5562.619447255639,5.439384691693429,4154871.6591452155,284.6649509562647,2987.8837484111773,49.351304288723504,1.9915537138202744,0.0014824832251901926
1.3020000000000007,5556.879338631702,5.465636778506367,4151311.768318097,284.62894870832065,2989.103029234575,49.22902139948753,1.9937749456605498,0.0015280156105464335
1.3420000000000007,5551.157186387157,5.491941915045848,4147748.0267371475,284.59288442157344,2990.3241166441658,49.10681672448118,1.9959932252359618,0.0015734322667623143
1.3820000000000008,5545.453140615666,5.518299638146805,4144180.4281776003,284.55675792527126,2991.5469896953264,48.98469033244766,1.998208533950687,0.001618733927889338
1.4220000000000008,5539.600985898959,5.54471072099971,4140608.9664665344,284.5205690486521,2992.561501920096,48.862642299490204,2.000420853234991,0.0016639213172903223
1.4620000000000009,5533.247055382579,5.571306441261993,4137033.635187315,284.4843176179452,2993.1227935490947,48.740672699341076,2.002630164736745,0.001708995150541772
1.502000000000001,5526.628904577932,5.598090361399336,4133454.343440573,284.4480026014062,2993.684138839869,48.61877885842379,2.0048365051134702,0.0017539569073795735
1.542000000000001,5520.141334478844,5.624663306425537,4129870.93723998,284.41162232382817,2994.2414452987023,48.49695607460287,2.007039951464974,0.0017988086226018963
1.582000000000001,5513.62610975221,5.651404398524007,4126283.4728982933,284.37517724267866,2994.8003554869083,48.375206512926624,2.0092404438736713,0.0018435503891687762
1.622000000000001,5507.141000715571,5.678161513247312,4122691.9182884744,284.3386669171684,2995.3578877749756,48.25352946276459,2.011437979974654,0.0018881831007216457
1.662000000000001,5500.6644864873615,5.704991475800075,4119096.2737675235,284.3020912357949,2995.91656640079,48.13192527581285,2.013632536364248,0.001932707345130067
1.702000000000001,5494.204664099561,5.731873503109036,4115496.5275923433,284.26544996345024,2996.476003831397,48.01039391652367,2.0158240975012074,0.001977123811163021
1.742000000000001,5487.758321056515,5.758816151470201,4111892.6725417273,284.22874291037516,2997.0363602852544,47.8889355015573,2.018012644956843,0.002021433137624873
1.7820000000000011,5481.326328020916,5.785816881189665,4108284.6995289563,284.19196986718305,2997.597586203501,47.76755009278216,2.020198161532654,0.0020656359713057395
1.8220000000000012,5474.9081039884495,5.812877173298812,4104672.599919346,284.15513062843854,2998.1597082429057,47.646237772239715,2.022380629766456,0.0021097329461914247
1.8620000000000012,5468.07191366303,5.839997070353115,4101056.3647021456,284.1182249842152,2998.6938784083077,47.52499861538598,2.0245600324613044,0.0021537246910239755
1.9020000000000012,5454.4660482960335,5.867193945998645,4097435.984784961,284.08125272308706,2998.771745158728,47.40383270057275,2.026736352494479,0.0021976118267779815
1.9420000000000013,5440.649387772988,5.89469975843794,4093811.440476766,284.0442135246138,2998.8467647237,47.28273977256087,2.0289095794681233,0.002241395059440028
1.9820000000000013,5427.168443409492,5.921973385990657,4090182.561522099,284.0071055272507,2998.921711948365,47.16171477513157,2.031079797927237,0.0022850764072814573
2.022000000000001,5413.769590218222,5.949419569668644,4086549.4018147984,283.9699291587749,2998.996936738678,47.0407598389562,2.033246950327236,0.0023286558995898256
2.062000000000001,5400.532857096804,5.976894013888973,4082911.930439996,283.932683979305,2999.0722121020367,46.91987438699337,2.03541103278044,0.002372134304941704
2.102000000000001,5387.431022463883,6.0044424028677295,4079270.143130947,283.89536982079755,2999.1476177617856,46.799058698961396,2.037572024589295,0.0024155121499985976
2.1420000000000012,5374.469007763118,6.032051661515017,4075624.0274231075,283.85798643055784,2999.2231276214434,46.67831279872314,2.0397299102196,0.0024587900253734913
2.1820000000000013,5361.642461663315,6.059726169515798,4071973.5730372933,283.82053357752056,2999.298748600691,46.55763678526568,2.0418846727666184,0.0025019684949273845
2.2220000000000013,5348.949737071196,6.087465228165012,4068318.768855593,283.7830110212629,2999.374477708488,46.437030736463555,2.0440362958500637,0.0025450481222153726
2.2620000000000013,5336.38848164149,6.115269596898536,4064659.6037891265,283.7454185208893,2999.450314878594,46.316494736648714,2.04618476306869,0.0025880294630412637
2.3020000000000014,5325.163390103028,6.1431396231911615,4060996.0665322063,283.70775583250025,2999.491472767957,46.19602886881488,2.0483300581513872,0.0026309130676738686
2.3420000000000014,5325.173973659026,6.171093808115093,4057328.1456311624,283.6700227098886,2999.2119856893787,46.075633216800036,2.0504721649119944,0.00267369948034001
2.3820000000000014,5325.219350835831,6.19926129563774,4053655.818706823,283.6322187935459,2998.9283487829953,45.955307526894174,2.0526110738687375,0.0027163893306831454
2.4220000000000015,5325.458962920494,6.227319636254652,4049978.9789176225,283.59434285250194,2998.643695124004,45.83504890582749,2.054746827210666,0.0027589839535512454
2.4620000000000015,5325.877435741908,6.25550817184492,4046297.6496503293,283.5563949951927,2998.357294706145,45.71485856118249,2.0568793869049697,0.0028014835691703745
2.5020000000000016,5326.482178405398,6.283748182061463,4042611.8079110323,283.51837485162343,2998.070528564592,45.5947362496571,2.0590087434028543,0.002843888784180815
2.5420000000000016,5327.279217096927,6.312061315227306,4038921.443504508,283.4802821828115,2997.78317731614,45.47468213487508,2.0611348792879465,0.0028862000901312183
2.5820000000000016,5328.274146884475,6.340443208233158,4035226.543071193,283.44211671628807,2997.495282011312,45.354696286999086,2.063257779056541,0.002928417998455959
2.6220000000000017,5329.473090828905,6.368895318852391,4031527.093717418,283.4038781835179,2997.2068270658992,45.234778796357034,2.0653774268963097,0.0029705430099677952
2.6620000000000017,5330.882344049232,6.397417908841098,4027823.082257362,283.36556631206753,2996.917808247149,45.114929749768464,2.067493807146227,0.0030125756212938796
2.7020000000000017,5332.508492052664,6.426011468022918,4024114.4953584643,283.3271808270952,2996.6282192360104,44.99514923509339,2.06960690420594,0.003054516323728437
2.7420000000000018,5331.050095947471,6.454676448637666,4020401.3195155696,283.28872145107295,2996.2264837875955,44.87543734044033,2.071716702549247,0.0030963656035167047
2.782000000000002,5325.18162644098,6.4834596129510835,4016683.541054494,283.250187903812,2995.672694139908,44.75579415429223,2.07382318671974,0.0031381239418917066
2.822000000000002,5319.276951347033,6.512327510124043,4012961.1194829885,283.2115796259573,2995.116864117163,44.6362189446684,2.0759263572115576,0.003179792032681944
2.862000000000002,5313.399481363771,6.541217128032241,4009234.01430083,283.17289605637757,2994.5610249430883,44.5167109907288,2.078026214309588,0.003221370560542773
2.902000000000002,5307.529685396609,6.570198133055134,4005502.221397296,283.13413701031556,2994.003748868542,44.39727069993053,2.0801227365176995,0.003262859905974083
2.942000000000002,5301.671696680041,6.59924922525084,4001765.7236531554,283.09530216710004,2993.445441716404,44.277898084595265,2.0822159100556963,0.003304260549617003
2.982000000000002,5295.82472643662,6.628375707726805,3998024.5067970273,283.05639123464465,2992.886005375349,44.15859325038167,2.0843057194056285,0.0033455729428450813
3.022000000000002,5289.988746528544,6.657577246810036,3994278.555846662,283.0174039124933,2992.325443937676,44.03935628683593,2.0863921494260866,0.0033867975367991906
3.062000000000002,5284.16366680381,6.686854399269194,3990527.855708489,282.9783398980354,2991.7637462755984,43.920187285829954,2.088475184994294,0.0034279347775748284
3.102000000000002,5278.349390445557,6.716207643785771,3986772.39111262,282.93919888581814,2991.200902385939,43.801086339589276,2.0905548110424865,0.0034689851068037438
3.142000000000002,5272.310669971783,6.745637452173827,3983012.1466101753,282.8999805675061,2990.629052847967,43.682053540634556,2.0926310125573515,0.0035099489617288655
3.182000000000002,5260.729543653759,6.775146550839015,3979247.106575888,282.86068463189605,2989.8697259762002,43.56308898188625,2.0947037745763586,0.0035508267752354015
3.222000000000002,5249.142813275042,6.80478419583486,3975477.2539532175,282.82131075179313,2989.10540897818,43.44419271871604,2.09677308291241,0.0035916189858044767
3.2620000000000022,5237.633885353979,6.834444727775177,3971702.543475101,282.78185830396194,2988.3392067295817,43.325363960467264,2.0988389396036373,0.0036323262479893144
3.3020000000000023,5226.170917771597,6.864200930386508,3967922.9682385284,282.7423270646375,2987.5709880407658,43.20660308533082,2.1009013243458075,0.003672948906952587
3.3420000000000023,5214.7611972639825,6.894032495607821,3964138.509275815,282.70271668293265,2986.801272489713,43.08791011220388,2.1029602237636995,0.003713487397562171
3.3820000000000023,5203.4029114907735,6.923944386384343,3960349.150237714,282.66302683423066,2986.02993839704,42.969285145049724,2.1050156229048786,0.0037539421285517865
3.4220000000000024,5192.09568012711,6.953936514726706,3956554.874176469,282.62325718654523,2985.256985866627,42.85072827569826,2.1070675070970237,0.0037943135078967747
3.4620000000000024,5180.839047898798,6.9840093725769306,3952755.6639750535,282.58340740499534,2984.4824024414706,42.73223959683775,2.109115861698105,0.0038346019394841216
3.5020000000000024,5169.632528722369,7.014163482449593,3948951.5023434754,282.5434771517536,2983.706174501261,42.61381920193216,2.111160672096511,0.0038748078231857354
3.5420000000000025,5158.475655329012,7.044399334487272,3945142.3718002466,282.5034660858377,2982.9282893188984,42.495467184695315,2.113201923719579,0.003914931555044813
3.5820000000000025,5150.775303555856,7.07471743078839,3941328.2546771965,282.4633738631471,2982.0134012826784,42.37718363927018,2.1152396020287347,0.003954973527278747
3.6220000000000026,5143.299503831184,7.105149505784071,3937509.1331174127,282.4232001364271,2981.0853232197587,42.25896866019931,2.1172736925185935,0.0039949341283352984
3.6620000000000026,5135.834350817346,7.135634047921963,3933684.9722214113,282.38294437777546,2980.1561943316096,42.14082184261672,2.1193041901586054,0.004034813871090249
3.7020000000000026,5128.371563700551,7.166209052067585,3929855.7580488455,282.3426062784518,2979.2248739793226,42.02274341185909,2.121331078018244,0.0040746131027285665
3.7420000000000027,5120.911904879542,7.196867641703665,3926021.4717742903,282.3021854771208,2978.291556975618,41.90473345406253,2.123354341838646,0.004114332202700517
3.7820000000000027,5113.455327404397,7.227610955803489,3922182.0949056954,282.26168161473106,2977.356213034516,41.786792071394785,2.125373967093135,0.00415397154287289
3.8220000000000027,5106.00163163513,7.25843964345869,3918337.608805716,282.22109432946473,2976.4188222765356,41.66891936785719,2.1273899392546056,0.004193531491222293
3.8620000000000028,5098.550703135009,7.289354146567016,3914487.994604339,282.180423255801,2975.4793717178122,41.55111544674252,2.129402243842077,0.004233012412528575
