time,thrust,OF,ox_tank.pressure,ox_tank.temperature,combustion_chamber.temperature,propellant_mass,propellant_CG,combustion_chamber.fuel_grain.geometry.length_regressed
0.007,239.70000916128313,5.326427365269805,4530248.223491644,288.3380013081853,2705.3636054759254,56.871018445149616,1.8553338031585123,1.1373997234559296e-05
0.014,930.4793652063883,5.038801887538241,4529250.274434874,288.3285451023661,2829.558323143716,56.836291626603746,1.8560525726346666,2.2699453131563366e-05
0.021,2031.3656497479171,4.947278207298205,4528310.52814451,288.3196389683898,2866.9820007504063,56.80350611756285,1.8567266759775496,3.357337483182228e-05
0.028,2919.74939247279,4.8749206395763665,4527424.91813506,288.3112446172838,2882.1711334196466,56.77252898272802,1.8573593675376396,4.401938686555206e-05
0.035,3598.405122873872,4.817019141108406,4526586.859324039,288.30329984500753,2889.0672031314994,56.743143199044255,1.8579557781782043,5.408230544593665e-05
0.042,4167.311426348792,4.772124558019559,4525789.361016501,288.2957385550464,2892.531555782635,56.71511751280153,1.8585213047185138,6.381243810955344e-05
0.049,4590.801012430856,4.738450053060179,4525025.642238876,288.2884965957985,2894.419409300686,56.68822691249906,1.8590611470788792,7.32606395389418e-05
0.056,4915.331727011483,4.714300842204964,4524289.4893068,288.2815151571211,2895.6075146348576,56.662264666788296,1.859580044844548,8.247506372698742e-05
0.063,5163.0989156193045,4.697348681619636,4523575.401747266,288.2747421608943,2896.4675660629937,56.637047363730076,1.8600821749330347,9.149949654743895e-05
0.07,5350.0834317929875,4.686105554796131,4522878.734699554,288.26813361822275,2897.2073391126696,56.612419841452834,1.8605710521632088,0.00010037169562416187
0.07700000000000001,5492.040452408659,4.679025631966838,4522195.633315022,288.2616530133435,2897.8829304691594,56.58825314231456,1.861049584886787,0.00010912352905331122
0.08400000000000002,5598.800643420335,4.674979846990978,4521522.985465254,288.2552708601986,2898.5207697960545,56.56444303929987,1.8615201154822874,0.00011778106270344047
0.09100000000000003,5678.841416669169,4.673124889241693,4520858.32405548,288.24896378003257,2899.1419446755062,56.54090683946817,1.8619844972043655,0.0001263651683846002
0.09800000000000003,5738.662717190279,4.672857831141952,4520199.721175686,288.2427135006067,2899.7415232032945,56.51757988415459,1.8624441759504153,0.00013489228130619522
0.10500000000000004,5783.202830545906,4.6737415195021645,4519545.685378931,288.2365058842419,2900.331189725909,56.494412132905005,1.8629002687799312,0.00014337518909325736
0.11200000000000004,5815.918193436693,4.675443387292071,4518895.071997116,288.230330078866,2900.904627913173,56.471365170858405,1.8633536320516555,0.00015182374811404637
0.11900000000000005,5839.642508806909,4.67773462900361,4518247.010391002,288.2241778292065,2901.4617298903822,56.44840977576259,1.8638049164889623,0.0001602454788131227
0.12600000000000006,5857.145058659845,4.680452492738339,4517600.842170967,288.2180428916585,2902.009385879425,56.42552384852155,1.8642546137643285,0.0001686460814457753
0.13300000000000006,5869.991262018373,4.6834893265130075,4516956.071648601,288.21192056489184,2902.5499277782396,56.40269075170853,1.8647030937687759,0.00017702985499285734
0.14000000000000007,5879.354488048574,4.686761122470443,4516312.3256936865,288.2058073094622,2903.0846472154435,56.379897962644804,1.8651506347396951,0.00018540003969102955
0.14700000000000008,5886.113468934425,4.690206670985869,4515669.324019168,288.19970046621347,2903.6147320711134,56.357136075862876,1.8655974455388478,0.00019375907203045107
0.15400000000000008,5890.925797901988,4.693781129495584,4515026.856405039,288.1935980404061,2904.141198846591,56.33439803831314,1.8660436827081768,0.00020210878106178087
0.1610000000000001,5894.283309486425,4.697451505909853,4514384.765363361,288.1874985373945,2904.6648822655998,56.31167856720448,1.8664894634385703,0.00021045053826250991
0.1680000000000001,5896.5537128618635,4.701193441582832,4513742.933010403,288.18140083816957,2905.18644964289,56.28897370911991,1.8669348753831594,0.00021878537126934945
0.1750000000000001,5898.0118364923965,4.704988901325913,4513101.2711616205,288.1753041054429,2905.7064248405663,56.26628050738145,1.8673799840562797,0.0002271140498095206
0.1820000000000001,5898.863045767286,4.708824502124067,4512459.713878764,288.16920771297356,2906.2252139252373,56.243596751786455,1.8678248383972664,0.000235437150415543
0.1890000000000001,5899.260777185272,4.712690295907174,4511818.211873335,288.16311119249167,2906.743128839778,56.22092079070639,1.8682694749460131,0.00024375510504455345
0.22900000000000012,5899.319657702531,4.716578878058796,4511176.728310444,288.15701419389853,2907.2604076835664,56.19825139022369,1.8687139209721435,0.0002520682375402772
0.26900000000000013,5892.740915836551,4.722822208658459,4507505.383110809,288.1221072122577,2908.0184875484883,56.0687575431837,1.8712516430336317,0.0002995153411603095
0.3090000000000001,5886.672607880418,4.745651183030653,4503830.832828367,288.08714829429533,2910.984487872448,55.93935125374641,1.8737859344680803,0.000346838301187065
0.3490000000000001,5881.541048464021,4.7678662173173985,4500153.000314054,288.05213662071685,2913.878103536949,55.81003008189843,1.8763168311634293,0.0003940386116847432
0.38900000000000007,5875.955857526115,4.790785204035552,4496472.335942757,288.01707639663744,2916.859139982277,55.68080909925486,1.8788439828450543,0.00044111326850788826
0.42900000000000005,5870.587234640413,4.813405200510852,4492788.620968187,287.98196545787613,2919.8018192407467,55.55168114178859,1.8813675306071083,0.0004880649680590229
0.46900000000000003,5865.0865198500205,4.8362327876837155,4489101.965279961,287.9468047701169,2922.769521072071,55.42264995794498,1.883887374982364,0.0005348935991526221
0.509,5859.6331491272385,4.85900591267081,4485412.308441793,287.9115936754299,2925.729475104101,55.29371365700658,1.886403541074782,0.0005816004825709591
0.549,5854.134368953187,4.881860413638535,4481719.677466228,287.8763323495221,2928.6986638941808,55.164873247675004,1.8889159903501451,0.0006281861886029256
0.5890000000000001,5848.63757467351,4.90472677087495,4478024.054221046,287.8410205369935,2931.66840459521,55.03612825225639,1.8914247172183596,0.0006746516561148613
0.6290000000000001,5843.118130591296,4.927641305057505,4474325.443550274,287.8056582015032,2934.6432354663825,54.90747895655973,1.893929699523345,0.000720997619875037
0.6690000000000002,5834.56528417381,4.9505858664575095,4470623.838332138,287.7702451920585,2936.7602732496553,54.77892525741056,1.8964309238749446,0.000767224903592349
0.7090000000000002,5824.482994121304,4.974026164657314,4466919.237379309,287.7347814140676,2938.689561103108,54.65046725210773,1.8989283726972215,0.0008133342705879214
0.7490000000000002,5814.642680277927,4.997117517743089,4463211.295793988,287.69926347926105,2940.589495476068,54.52209379402386,1.9014222746518437,0.0008593293028323679
0.7890000000000003,5804.778955775815,5.0203453139624505,4459500.072155155,287.66369185931757,2942.499356446528,54.39380699240587,1.9039125679429314,0.0009052102237318735
0.8290000000000003,5795.3908488293655,5.043568569744026,4455785.532084539,287.62806613521553,2944.407124114448,54.2656059162966,1.9063992575346795,0.0009509780135483536
0.8690000000000003,5786.758468752193,5.066813004664907,4452067.684209542,287.5923862996714,2946.3151924490126,54.137491046877514,1.9088823176932832,0.0009966332887818966
0.9090000000000004,5778.510508257144,5.0901057760615505,4448346.546834367,287.5566524382768,2948.226646887299,54.00946318271369,1.9113617159897385,0.0010421765789567503
0.9490000000000004,5770.584683028915,5.113474919432622,4444622.124829099,287.52086450764915,2950.1431007925003,53.88152268654043,1.913837429733495,0.001087608515152578
0.9890000000000004,5763.004118797021,5.136876741819934,4440894.393846037,287.4850221832165,2952.061152435511,53.75366897639117,1.9163094569981562,0.0011329299556506515
1.0290000000000004,5755.7526238225455,5.160331756225941,4437163.342330159,287.44912526264403,2953.9823880766394,53.625901893328034,1.9187777867883675,0.0011781416443658434
1.0690000000000004,5748.832716846665,5.183831271351509,4433428.952576926,287.41317348380136,2955.9061279689413,53.498221085640424,1.921242412453215,0.0012232443645522964
1.1090000000000004,5742.240210178739,5.207379927146414,4429691.209381229,287.377166607916,2957.8327266637466,53.3706262895803,1.9237033255712184,0.0012682388690693225
1.1490000000000005,5735.975226483382,5.230976343436321,4425950.096127008,287.3411043819406,2959.7620713914166,53.243117202594156,1.9261605187034874,0.00131312591201738
1.1890000000000005,5734.054234314056,5.254621834691591,4422205.596535006,287.30498655536945,2960.9848040452466,53.11569353987697,1.928613984161194,0.0013579062348494195
1.2290000000000005,5732.256525854353,5.278639779115623,4418457.693886765,287.2688128727532,2962.1010474825953,52.98835500927879,1.9310637145466165,0.0014025805727167935
1.2690000000000006,5730.210259748818,5.302397607741954,4414706.141163445,287.2325808530027,2963.2050253248335,52.86109393176768,1.9335098622529685,0.0014471514666151092
1.3090000000000006,5727.836202503067,5.3262872574364994,4410950.989390817,287.1962908898519,2964.3142825762966,52.7339122335606,1.9359523717691116,0.0014916190822384901
1.3490000000000006,5725.1544888514545,5.3501918421010926,4407192.209714377,287.15994260526014,2965.4237612751785,52.60680927770936,1.9383912431804684,0.0015359842087270662
1.3890000000000007,5722.141557797055,5.374156170033949,4403429.803079059,287.1235359085869,2966.5353954521697,52.47978538864433,1.9408264559392834,0.0015802473922867535
1.4290000000000007,5718.792964640851,5.39816359565045,4399663.758869158,287.0870705969101,2967.6484662031908,52.352840525061495,1.9432579975353188,0.0016244092619670135
1.4690000000000007,5715.097871945929,5.42222097861295,4395894.070691473,287.050546507634,2968.7632691879453,52.22597478556616,1.9456858525786487,0.0016684704059046398
1.5090000000000008,5711.049419436863,5.4463262193109525,4392120.7303724,287.0139634604007,2969.8797133083685,52.099188216618366,1.9481100069382609,0.0017124314183909718
1.5490000000000008,5706.640622476581,5.470480619950783,4388343.730233201,286.97732127911206,2970.997854267551,51.9724808851893,1.9505304461740627,0.0017562928822388833
1.5890000000000009,5701.866064276412,5.494684196606441,4384563.062232024,286.9406197836112,2972.117692218015,51.84585285137916,1.952947156123446,0.0018000553755553777
1.629000000000001,5696.721271748504,5.5189374501293145,4380778.718287087,286.9038587928086,2973.2392482019377,51.71930417869175,1.9553601226777002,0.0018437194693406455
1.669000000000001,5691.034189886306,5.54324069988771,4376990.690156308,286.86703812350765,2974.18968118594,51.59283493019055,1.9577693318619513,0.0018872857285178626
1.709000000000001,5684.65722429687,5.567692184269639,4373198.969482786,286.8301575908396,2974.7020548697724,51.46644516992738,1.9601747698019165,0.0019307547116813831
1.749000000000001,5677.996698588277,5.592342846663836,4369403.480935237,286.793216357305,2975.21328205299,51.34013285499097,1.9625764677371118,0.0019741274781284973
1.789000000000001,5671.456679009434,5.616824186307185,4365604.070724081,286.75621281875993,2975.721383906345,51.213893490100105,1.9649745091542965,0.0020174056665736
1.829000000000001,5664.895690468313,5.6414387410499875,4361800.78416278,286.7191473078026,2976.231776775581,51.08772887062561,1.967368843190732,0.0020605893947691807
1.869000000000001,5658.358921573646,5.666080761145915,4357993.593811158,286.6820194480856,2976.7425090928427,50.961638502828585,1.969759467977244,0.0021036793253861813
1.9090000000000011,5651.8318962322355,5.6907848393123555,4354182.495605831,286.6448290903812,2977.254221562127,50.83562263360379,1.9721463659511007,0.0021466759377026835
1.9490000000000012,5645.318902748018,5.71554053943951,4350367.477917146,286.6075760110722,2977.7667191812543,50.70968127669609,1.9745295246227796,0.002189579761413047
1.9890000000000012,5638.8183788591505,5.740351638709178,4346548.53131043,286.5702600073173,2978.2800712321255,50.58381451941446,1.976908930038813,0.0022323913032135296
2.0290000000000012,5632.330578383343,5.765217464694922,4342725.645493396,286.5328808672613,2978.794264122328,50.458022426853475,1.9792845688180951,0.00227511106979414
2.0690000000000013,5625.855198736454,5.790138730075788,4338898.810264674,286.49543837928763,2979.3093100757364,50.33230507160386,1.9816564275179995,0.002317739560820567
2.1090000000000013,5619.392110397049,5.81511572034875,4335068.015221167,286.4579323291517,2979.8252133262367,50.20666252459466,1.9840244928267308,0.002360277271194116
2.1490000000000014,5612.459466192642,5.840148853222936,4331233.2498479495,286.42036250085204,2980.310470846422,50.08109485789821,1.9863887515016905,0.002402724690458837
2.1890000000000014,5599.218903534748,5.865255366866693,4327394.503490929,286.3827286763552,2980.3801234810185,49.95560214387663,1.9887491903854897,0.0024450823030778943
2.2290000000000014,5585.769744238574,5.890625194697303,4323551.754295415,286.34503052703656,2980.4470351725736,49.830184112853274,1.9911058036212865,0.002487350669228873
2.2690000000000015,5572.600829417502,5.9158330703870545,4319704.848949065,286.3072664323826,2980.514005866415,49.704836439923675,1.9934586708112043,0.0025295312984330957
2.3090000000000015,5559.514107588804,5.941171272385918,4315853.825423543,286.269436647119,2980.5811847327755,49.579560733702635,1.9958077464123023,0.0025716242940422352
2.3490000000000015,5546.563020582704,5.966549302264778,4311998.658386976,286.2315408040768,2980.648447805898,49.45435664798677,1.9981530261826383,0.0026136302158230656
2.3890000000000016,5533.731555462726,5.991991798079655,4308139.339485153,286.1935787020565,2980.7158343746128,49.329224366040776,2.0004944948071093,0.0026555494942287657
2.4290000000000016,5521.02134373422,6.0174930626033625,4304275.855893372,286.15555009519676,2980.7833331320603,49.204163937877325,2.0028321398521114,0.0026973825864988845
2.4690000000000016,5508.429755238061,6.043054988484508,4300408.195708761,286.1174547459532,2980.850946384271,49.07917544662461,2.005165948263844,0.002739129937612681
2.5090000000000017,5495.955215654307,6.0686776222898615,4296536.346634779,286.07929241215464,2980.918672976067,48.954258968010365,2.00749590721787,0.002780791989861586
2.5490000000000017,5483.595907076293,6.094361453042546,4292660.29629562,286.041062850088,2980.984532401231,48.82941458003795,2.009822003914204,0.0028223691806429805
2.5890000000000017,5471.348962167835,6.120107638720394,4288780.032161931,286.00276581375806,2981.04959791153,48.704642360713905,2.0121442256231874,0.0028638619430523034
2.629000000000002,5461.692906771381,6.145915405992065,4284895.541076921,285.96440105019616,2981.044801237945,48.57994237362443,2.014462559984375,0.002905270709290216
2.669000000000002,5461.277221801831,6.171818839971042,4281006.810171641,285.92596830848385,2980.7809400557667,48.455314695898636,2.016776994420747,0.002946595904212124
2.709000000000002,5460.895070385051,6.197875785491177,4277113.80543129,285.88746712771024,2980.513867307879,48.33075876730325,2.0190875296766713,0.002987838096072257
2.749000000000002,5460.682796748203,6.223884381766596,4273216.442685718,285.8488965490604,2980.2476748063254,48.20627251596231,2.0213941979019796,0.0030289981975222743
2.789000000000002,5460.627133963699,6.24999110400623,4269314.731920042,285.81025654375566,2979.9806182046327,48.081856738341884,2.023696971580584,0.0030700764522472784
2.829000000000002,5460.73389616614,6.276155011240395,4265408.653912031,285.7715467932753,2979.7131330988973,47.95751134852444,2.025995841612882,0.003111073304333809
2.869000000000002,5461.007710294631,6.302385531504056,4261498.195873062,285.732767041932,2979.4451238216593,47.83323646056089,2.028290794800866,0.003151989147744231
2.909000000000002,5461.453202949426,6.328681425806129,4257583.343619383,285.69391701936826,2979.1766008250975,47.70903215107697,2.03058181877936,0.003192824381256211
2.949000000000002,5462.075290514354,6.355043379371248,4253664.083023921,285.6549964549269,2978.907556401327,47.58489850325289,2.032868901101572,0.0032335793983590028
2.989000000000002,5462.8790547552,6.38147178354185,4249740.399785305,285.61600507535167,2978.637985457413,47.460835599853645,2.035152029382072,0.0032742545889107677
3.029000000000002,5463.869786319194,6.407967067454845,4245812.279457268,285.57694260506895,2978.367882609831,47.33684352413414,2.03743119127652,0.0033148503389794936
3.069000000000002,5465.052987329811,6.4345296591857855,4241879.707445582,285.53780876614746,2978.0972424827396,47.21292235976414,2.0397063744817214,0.0033553670309087605
3.109000000000002,5461.275631047011,6.461159988098322,4237942.66900744,285.49860327828173,2977.6557592673635,47.08907219082761,2.0419775667341624,0.003395805043365606
3.1490000000000022,5455.286128356027,6.487923422339871,4234001.149250984,285.45932585877745,2977.1393009841922,46.96529310182802,2.0442447558084336,0.003436164751386205
3.1890000000000023,5449.2953417609,6.514720409973862,4230055.093547826,285.41997582763724,2976.6222007330725,46.84158399898609,2.046507953681445,0.0034764467945030985
3.2290000000000023,5443.3192383093865,6.541577367452618,4226104.481831541,285.3805528478504,2976.1042902618115,46.71794482860475,2.0487671509578314,0.003516651571038108
3.2690000000000023,5437.351917977782,6.5685083223299365,4222149.301198671,285.34105665288826,2975.585255011694,46.594375755433006,2.0510223338024796,0.0035567794262033057
3.3090000000000024,5431.394515881958,6.595508722195149,4218189.535222547,285.30148694012496,2975.0651840306514,46.47087684428184,2.0532734904699215,0.0035968307246059456
3.3490000000000024,5425.446909132104,6.622580070797359,4214225.168098259,285.261843412173,2974.5433580386057,46.34744818347659,2.0555206087717908,0.0036368058222088166
3.3890000000000025,5419.509152631884,6.649722836074057,4210256.183743237,285.22212576789565,2974.018065889074,46.22408985813202,2.0577636766229186,0.003676705072445415
3.4290000000000025,5413.580356916335,6.676937648392523,4206282.565824181,285.1823337026613,2973.4916822595846,46.10080195099842,2.0600026820223003,0.0037165288260648764
3.4690000000000025,5407.661265122608,6.704224009982336,4202304.297679152,285.142466907548,2972.9642262707807,45.977584540218864,2.062237613096997,0.0037562774316735608
3.5090000000000026,5401.75159328428,6.731583088845196,4198321.36293979,285.1025250755677,2972.4356741545685,45.85443771767595,2.064468457727782,0.003795951231641133
3.5490000000000026,5392.940698161643,6.759015156580901,4194333.744951964,285.0625078958551,2971.8103434799486,45.731361571915386,2.066695203895728,0.003835550565996451
3.5890000000000026,5381.562096595173,6.786546297639507,4190341.426924759,285.022415055148,2971.0980433270192,45.60835619256555,2.0689178395909567,0.0038750757714693038
3.6290000000000027,5370.212415834183,6.814149739730667,4186344.376790531,284.9822460855709,2970.384018455707,45.48542122781372,2.071136361758668,0.003914527280651533
3.6690000000000027,5358.916507060676,6.841812291650572,4182342.568392203,284.9420005772336,2969.668925966864,45.36255650645475,2.0733507636794437,0.003953905482210515
3.7090000000000027,5347.6641759107115,6.86955439393908,4178335.987499233,284.9016782390011,2968.952211518313,45.239762211663376,2.0755610314870148,0.003993210682390068
3.7490000000000028,5336.4569423548965,6.897371254004367,4174324.6160321897,284.86127873998157,2968.233995182253,45.11703841924901,2.077767153512751,0.004032443208599615
3.789000000000003,5325.294234689787,6.925264127543944,4170308.4363711965,284.8208017528193,2967.514246713516,44.99438522368218,2.079969117735508,0.004071603381207871
3.829000000000003,5314.175664104652,6.953233444705086,4166287.4306847937,284.7802469469336,2966.7929547119197,44.87180271852069,2.082166912176005,0.004110691517960856
