time,thrust,OF,ox_tank.pressure,ox_tank.temperature,combustion_chamber.temperature,propellant_mass,propellant_CG,combustion_chamber.fuel_grain.geometry.length_regressed
0.007,240.90012054531226,11.854799657588051,5200816.514052599,294.3625175185552,2774.4506686638842,54.264636628001405,1.8656031370250008,5.586163411173477e-06
0.014,868.4892071069245,11.348827166340074,5199444.131662777,294.350812589774,2911.5675879887103,54.22940232472236,1.8665333556167658,1.1157921853533242e-05
0.021,1952.9814873925595,11.097694765821425,5198133.696612175,294.3396337752931,2964.0720413215276,54.195715069614344,1.867419423370937,1.660039536835465e-05
0.028,2868.444739599119,10.874814940691714,5196881.994615499,294.3289539555596,2997.4338671593036,54.163495035223455,1.8682637276876612,2.191753407269356e-05
0.035,3632.1407997472593,10.676901967707806,5195683.684624504,294.3187278262319,3021.6881207025444,54.1326096230889,1.8690701216288503,2.7118162847698952e-05
0.042,4263.9074543285615,10.503985653018022,5194532.973613287,294.3089061809593,3040.333430578059,54.10291494633174,1.8698427501300399,3.221267442886061e-05
0.049,4782.801125959512,10.355377476932288,5193424.012193116,294.2994392891237,3055.026573936074,54.074265628996784,1.8705857745779961,3.7212211209667196e-05
0.056,5206.363947216445,10.229684914339748,5192351.137116665,294.2902789693935,3066.7204736784824,54.04652082924636,1.8713032058330283,4.212809701820815e-05
0.063,5550.151751669641,10.124869019417966,5191309.034373734,294.2813799866604,3076.071336198576,54.01954830626302,1.8719987934474143,4.6971395393740056e-05
0.07,5827.814635458606,10.038606076239471,5190292.85649247,294.2727010585757,3083.5355659755724,53.993227358317064,1.8726759471849261,5.175254394612522e-05
0.07700000000000001,6051.114474508117,9.968426502167736,5189298.282554498,294.26420537306535,3089.4877486910896,53.96745033953833,1.8733376984104277,5.648111142356077e-05
0.08400000000000002,6229.999144471753,9.911919654823011,5188321.540709788,294.2558607853962,3094.2106662827423,53.94212324242528,1.8739866873283,6.1165647062835e-05
0.09100000000000003,6372.814970063111,9.86687033408606,5187359.396864604,294.24763972592785,3097.950466746513,53.91716543456702,1.8746251733409018,6.581362270368956e-05
0.09800000000000003,6486.508384931419,9.831280162326575,5186409.118087601,294.2395188913747,3100.891915381206,53.892508761041526,1.8752550625082725,7.043145184127333e-05
0.10500000000000004,6576.753640272256,9.803456630914532,5185468.4253206095,294.2314788441255,3103.2002706147205,53.86809637569067,1.8758779420036704,7.502455106273771e-05
0.11200000000000004,6648.204687199201,9.78193180509586,5184535.43509809,294.2235035170727,3105.0005354312943,53.843881294774384,1.8764951217811146,7.959744286441413e-05
0.11900000000000005,6704.6354028504,9.765490828421196,5183608.605654482,294.2155797554098,3106.395418081467,53.8198250569158,1.8771076728921987,8.415385973593132e-05
0.12600000000000006,6749.095664737718,9.75313364089497,5182686.683804015,294.2076968645599,3107.46006514328,53.79589640036085,1.8777164649989546,8.869685540222977e-05
0.13300000000000006,6784.027898285023,9.744042560042981,5181768.65674325,294.1998461997691,3108.271020487351,53.77207006169111,1.8783222002727535,9.322891061087046e-05
0.14000000000000007,6811.389507712833,9.737559631707718,5180853.709930545,294.1920208072984,3108.879715306298,53.74832572531224,1.8789254429321163,9.775202860769569e-05
0.14700000000000008,6832.743227846352,9.733154023523273,5179941.190483775,294.184215112501,3109.3274084408463,53.72464711020775,1.8795266448429815,0.00010226782016532818
0.15400000000000008,6849.334281594611,9.73040005473256,5179030.576619015,294.176424659312,3109.645319407721,53.70102120718558,1.880126166855403,0.00010677757578850784
0.1610000000000001,6862.15230404831,9.728957723771682,5178121.4523027735,294.16864589412546,3109.860242286925,53.67743764613724,1.8807242964721498,0.00011128232638524551
0.1680000000000001,6871.982802668172,9.72855587377123,5177213.486419198,294.1608759881287,3109.995392995066,53.653888175958514,1.8813212623500912,0.00011578289362708249
0.1750000000000001,6879.449396034849,9.728978578974859,5176306.415823381,294.1531126927484,3110.0673491867196,53.63036624147425,1.881917246082674,0.00012027993122374867
0.1820000000000001,6885.046255514856,9.730054412224376,5175400.031644566,294.1453542227979,3110.0892705875553,53.6068666415081,1.882512391712918,0.0001247739584744008
0.1890000000000001,6889.164699649519,9.73164734344042,5174494.168239521,294.1375991622166,3110.0715956167564,53.583385253131794,1.8831068133982607,0.00012926538744720338
0.19600000000000012,6892.114428561995,9.733649526022893,5173588.694335551,294.12984638848127,3110.0225968715026,53.55991881059728,1.8837006015506899,0.0001337545448446898
0.20300000000000012,6894.140439875193,9.735975516799316,5172683.505951538,294.1220950121822,3109.9488259917225,53.53646472867051,1.8842938277402368,0.00013824168952441767
0.21000000000000013,6895.43647961503,9.738557658545952,5171778.52075405,294.11434432884124,3109.855468878862,53.5130209617994,1.884886548601429,0.00014272702649487337
0.21700000000000014,6896.1557223422915,9.741342400128092,5170873.673566225,294.10659378056516,3109.746628666621,53.48958589206684,1.8854788089395442,0.00014721071806861647
0.22400000000000014,6896.419241568885,9.744287369316494,5169968.912799522,294.09884292557484,3109.6255507261217,53.4661582401821,1.8860706441968456,0.00015169289273313428
0.2640000000000001,6896.322721595649,9.747359047677465,5169064.197622028,294.0910914140202,3109.494801324738,53.44273699485911,1.8866620824084042,0.00015617365219586907
0.3040000000000001,6888.666407017634,9.752138864787177,5163886.425277591,294.04670860630176,3109.201222162339,53.3089395342684,1.890036920881749,0.0001817560450929888
0.3440000000000001,6881.349892099681,9.771622904824703,5158705.213985617,294.00226192783464,3108.2900513781497,53.1752305173584,1.8934021372391217,0.00020730436470301118
0.38400000000000006,6872.887181114832,9.79254185692356,5153520.88857564,293.9577540464722,3107.30178218927,53.04161887462056,1.8967575142125186,0.00023281783580886742
0.42400000000000004,6864.616725143061,9.812743629744803,5148332.834923965,293.913179567927,3106.346475533734,52.90809036125022,1.900103466782093,0.0002582979949058178
0.464,6856.353267345231,9.833027254939012,5143141.110944099,293.8685388617985,3105.3880337317264,52.77464733890401,1.9034399555561694,0.00028374471943645296
0.504,6848.083752209252,9.853325058957973,5137945.687990722,293.82383155364477,3104.429169907782,52.64129003049669,1.9067669993612555,0.0003091580996780913
0.544,6839.816076574323,9.87362229229778,5132746.5298524555,293.7790572026193,3103.4706036403345,52.50801847238378,1.9100846218573775,0.00033453824378616704
0.5840000000000001,6831.549662578949,9.893923485635222,5127543.604350875,293.7342154012162,3102.5104160974615,52.37483279987747,1.9133928437864114,0.00035988524935430164
0.6240000000000001,6823.283095217457,9.914229319517586,5122336.878963061,293.6893057376265,3101.550028577598,52.24173313956765,1.9166916859012475,0.00038519921415211805
0.6640000000000001,6815.017259677101,9.934538309591147,5117126.320657913,293.64432779430604,3100.589772301416,52.10871960546788,1.9199811690693442,0.0004104802365108023
0.7040000000000002,6806.752094706988,9.954850929829165,5111911.896952359,293.59928115707874,3099.629626547624,51.97579232495937,1.9232613135764807,0.00043572841275144216
0.7440000000000002,6798.487497180816,9.975167228289616,5106693.57540766,293.55416541079137,3098.669588135138,51.842951426511874,1.9265321394614465,0.0004609438384131174
0.7840000000000003,6790.223404599206,9.995487186699856,5101471.323598671,293.50898013904157,3097.7096571886077,51.710197039012776,1.9297936665367232,0.0004861266083257863
0.8240000000000003,6781.95974983543,10.015810809845453,5096245.10913116,293.46372492432073,3096.749832804783,51.577529292269915,1.9330459143776433,0.0005112768165666179
0.8640000000000003,6773.696465528204,10.036138099908568,5091014.899636354,293.4183993479603,3095.7901141923417,51.4449483169567,1.9362889023265102,0.0005363945564716403
0.9040000000000004,6765.433484852505,10.056469057573596,5085780.662767561,293.37300299009576,3094.830500634314,51.31245424460644,1.9395226494953326,0.0005614799206424212
0.9440000000000004,6757.179122504332,10.076803682684814,5080542.366197191,293.32753542963354,3093.870121994185,51.180047207617164,1.9427471747682623,0.0005865330009516377
0.9840000000000004,6748.946865100272,10.097128260561476,5075299.977613655,293.2819962442174,3092.9097187276607,51.04772733925327,1.9459624968040736,0.0006115538885488852
1.0240000000000005,6740.725996494912,10.11745162409539,5070053.47185848,293.2363850722929,3091.9497641029707,50.915494945923,1.9491686295014,0.000636542656869213
1.0640000000000005,6732.50270619234,10.13778667669814,5064802.822751469,293.1907015421935,3090.989545731036,50.78335030905909,1.952365587256548,0.0006614993812330377
1.1040000000000005,6724.279271264825,10.158124209505068,5059547.996885131,293.1449452180419,3090.0294814116064,50.651293536067854,1.9555533888670364,0.0006864241535292788
1.1440000000000006,6716.055708883459,10.17846522212311,5054288.962007781,293.0991156725748,3089.069529107711,50.51932476305021,1.9587320521799203,0.0007113170621979801
1.1840000000000006,6707.831866048128,10.198809851757844,5049025.685925787,293.0532124775967,3088.1096813169966,50.38744412834025,1.9619015947929224,0.0007361781948496164
1.2240000000000006,6699.607689020611,10.219158036511185,5043758.136398084,293.00723520305314,3087.149940163602,50.25565177004253,1.9650620341212957,0.0007610076385133383
1.2640000000000007,6691.383114662854,10.23950977186033,5038486.281184424,292.9611834174424,3086.1903052323573,50.12394782726733,1.9682133873676877,0.0007858054795206819
1.3040000000000007,6683.158078324788,10.259865049768026,5033210.088037954,292.91505668774215,3085.230776243232,49.992332440024335,1.9713556715271896,0.0008105718035215009
1.3440000000000007,6674.932516153502,10.280223859654994,5027929.524701358,292.8688545793672,3084.2713530374945,49.86080574920167,1.974488903390101,0.000835306695491398
1.3840000000000008,6666.706711603118,10.300586190229529,5022644.558904168,292.8225766561372,3083.310312226615,49.72936789657566,1.9776130995438812,0.0008600102397360876
1.4240000000000008,6658.479401507255,10.320952982084297,5017355.158359933,292.77622248024255,3082.349045829955,49.59801902481314,1.9807282763752534,0.0008846825198964179
1.4640000000000009,6650.2513758072155,10.341322805144271,5012061.290273502,292.72979160791243,3081.38790914746,49.46675926584553,1.9838344503713428,0.0009093236200927406
1.504000000000001,6642.022605970204,10.36169606991882,5006762.922310736,292.6832835979031,3080.426884622092,49.33558876401483,1.986931637524572,0.0009339336226596402
1.544000000000001,6633.807576323509,10.38207282274463,5001460.022137051,292.63669800745004,3079.46619748601,49.204507665135154,1.9900198536180516,0.0009585126092253037
1.584000000000001,6625.614922719788,10.402436282441386,4996152.557370823,292.59003439184943,3078.5066384086563,49.0735161154573,1.9930991142542507,0.0009830606608179926
1.624000000000001,6617.426183873571,10.422805995398914,4990840.504169817,292.5432923800322,3077.5471314904744,48.94261446434906,1.9961694296892627,0.0010075778380585511
1.664000000000001,6609.234128364121,10.443184074674164,4985523.83293839,292.4964715489423,3076.5875009724327,48.81180292607051,1.9992308134953927,0.0010320642142721468
1.704000000000001,6601.040206394341,10.463565084506078,4980202.510082068,292.4495714387924,3075.6279943421587,48.6810816221525,2.0022832814497313,0.0010565198713116772
1.744000000000001,6592.844365655588,10.48394974836075,4974876.5027453145,292.40259159471896,3074.668580603105,48.55045069346167,2.005326848671606,0.0010809448885975895
1.7840000000000011,6584.646494635157,10.504338115215363,4969545.778042695,292.35553156000924,3073.70925658313,48.419910282099856,2.0083615300871127,0.0011053393448937103
1.8240000000000012,6576.44653983057,10.524730131300547,4964210.303015037,292.3083908757035,3072.7500241499424,48.28946053044474,2.0113873404553257,0.0011297033184055575
1.8640000000000012,6568.244441265728,10.545125778993542,4958870.044657805,292.26116908083367,3071.7908835697494,48.15910158188817,2.014404294351446,0.0011540368867128858
1.9040000000000012,6560.040138172081,10.565525037419754,4953524.969914988,292.21386571235814,3070.8318352406222,48.02883358076246,2.0174124061705623,0.0011783401267814982
1.9440000000000013,6551.833570261031,10.58592788369772,4948175.045675732,292.1664803051203,3069.8728796549212,47.898656672331114,2.0204116901297406,0.0012026131149687085
1.9840000000000013,6543.624677344036,10.606334294047672,4942820.238771685,292.11901239181304,3068.9140173478927,47.76857100279686,2.0234021602696783,0.0012268559270270688
2.0240000000000014,6535.413399340126,10.626744243578619,4937460.515974172,292.071461502942,3067.9552489067105,47.63857671930509,2.0263838304564334,0.0012510686381084909
2.0640000000000014,6527.19967628116,10.64715770627396,4932095.843991365,292.02382716678784,3066.996574971107,47.50867396994753,2.0293567143831397,0.0012752513227683008
2.1040000000000014,6518.983448304629,10.667574654991627,4926726.189465413,291.97610890936863,3066.037996233235,47.378862903766034,2.032320825571703,0.0012994040549692224
2.1440000000000015,6510.785460264799,10.687995061455258,4921351.518969649,291.92830625440223,3065.081234163347,47.24914367075656,2.0352761773744668,0.0013235269080853077
2.1840000000000015,6502.6165890317125,10.708387885480787,4915971.799005771,291.88041872326824,3064.1247282241598,47.119516421873115,2.0382227829758666,0.0013476199549058122
2.2240000000000015,6494.450592636723,10.728792891416518,4910587.011630933,291.83244597427426,3063.167759255787,46.98998166913198,2.0411606465079513,0.001371683232736389
2.2640000000000016,6486.281335873685,10.74920484307617,4905197.126603456,291.7843875547624,3062.210737164123,46.860539642030396,2.0440897789958807,0.0013957168058538855
2.3040000000000016,6478.109836485641,10.769619051224382,4899802.110081247,291.73624297829735,3061.253871825652,46.73119048967122,2.047010193317119,0.0014197207458570805
2.3440000000000016,6469.936082438603,10.79003598191845,4894401.928713531,291.68801176108116,3060.297143696649,46.60193437530362,2.049921901863547,0.0014436951224983746
2.3840000000000017,6461.75997105206,10.81045567671775,4888996.549100524,291.63969341712885,3059.3405500312365,46.4727714639164,2.052824916850163,0.0014676400048915814
2.4240000000000017,6453.581446726599,10.830878066793943,4883585.937733365,291.5912874577184,3058.3840932953444,46.34370192092828,2.0557192503489112,0.0014915554616427144
2.4640000000000017,6445.400450140196,10.851303111930955,4878170.06101742,291.5427933915841,3057.4277747094875,46.21472591279173,2.058604914275459,0.0015154415607954135
2.504000000000002,6437.216921012881,10.87173077000739,4872748.885267551,291.49421072486,3056.4715955663187,46.08584360695455,2.061481920391785,0.0015392983698385438
2.544000000000002,6429.0307993830775,10.892160996771686,4867322.376704732,291.44553896103486,3055.5155572551894,45.95705517185089,2.0643502803080063,0.001563125955710902
2.584000000000002,6420.842025326909,10.912593746878853,4861890.501453334,291.39677760091286,3054.559661215151,45.82836077690936,2.0672100054837834,0.0015869243848042238
2.624000000000002,6412.650538949926,10.933028973737752,4856453.225538301,291.34792614257316,3053.6039089412393,45.69976059255787,2.070061107229799,0.0016106937229664739
2.664000000000002,6404.456280391475,10.953466629486774,4851010.514882297,291.2989840813287,3052.6483019855036,45.57125479022834,2.0729035967092186,0.001634434035505093
2.704000000000002,6396.26061855624,10.973906664990727,4845562.33530283,291.24995090968486,3051.693037011559,45.44284354236174,2.0757374849391392,0.0016581453871901872
2.744000000000002,6388.086711988029,10.994347437519181,4840108.6525094155,291.200826117298,3050.741189082276,45.3145270224132,2.0785627827920243,0.0016818278422576708
2.784000000000002,6379.931672765405,11.014765444977591,4834649.432893267,291.15160919808164,3049.7907966788475,45.18630542268885,2.081379500570482,0.0017054814626964697
2.824000000000002,6371.770136758119,11.03520226696334,4829184.654791615,291.1022997519043,3048.8398214665576,45.05817920724286,2.084187641976085,0.0017291062839334278
2.864000000000002,6363.6051788962095,11.055639647298094,4823714.281772971,291.05289724368015,3047.8890641328826,44.93014851063885,2.0869872185041003,0.0017527023727075966
2.904000000000002,6355.437134292732,11.076078731632641,4818238.2789699305,291.00340115047385,3046.9384808851137,44.80221350643326,2.0897782405996854,0.0017762697915790192
2.944000000000002,6347.265783095051,11.096519899875215,4812756.611642473,290.9538109485464,3045.9880535157677,44.674374374817575,2.092560718436788,0.0017998086020499407
2.984000000000002,6339.091447773115,11.116962991602485,4807269.244834137,290.9041261102327,3045.035811379408,44.546631294972585,2.095334662102042,0.0018233188653036384
3.0240000000000022,6330.912737610885,11.137409127175138,4801776.143465178,290.8543461047652,3044.083557881756,44.41898444723154,2.0981000815446538,0.0018468006419996982
3.0640000000000023,6322.73064339968,11.157856382297105,4796277.271743201,290.80447039290794,3043.131504904041,44.29143400005471,2.1008569868847453,0.0018702539935265495
3.1040000000000023,6314.545037340203,11.178305402825732,4790772.594372057,290.7544984378946,3042.1796241878806,44.16398013703208,2.103605387776804,0.0018936789794130062
3.1440000000000023,6306.355832260762,11.198756124042381,4785262.075885069,290.7044296993739,3041.227917683426,44.03662304206671,2.1063452937623204,0.0019170756587547977
3.1840000000000024,6298.162974172232,11.219208456811282,4779745.680659174,290.65426363351827,3040.2763887574283,43.90936289976651,2.1090767142618985,0.001940444090180084
3.2240000000000024,6289.966403050095,11.239662337747466,4774223.372931872,290.6039996931582,3039.3250396312424,43.78219989589461,2.111799658566118,0.0019637843318094416
3.2640000000000025,6281.766058534578,11.260117699023988,4768695.116794782,290.5536373277045,3038.373872710698,43.655134217300514,2.114514135838624,0.00198709644126562
3.3040000000000025,6273.56856396531,11.28057447086786,4763160.8761904165,290.503175983099,3037.424165464175,43.528166051921836,2.1172201551175487,0.0020103804756765064
3.3440000000000025,6265.3902411656545,11.301024749977701,4757620.61490917,290.4526151017674,3036.4782460542124,43.401295588793715,2.1199177253167605,0.002033636491677311
3.3840000000000026,6257.2228175265545,11.321461580919491,4752074.300440141,290.40195415778794,3035.5333018005513,43.27452310244502,2.122606853274865,0.002056864537349301
3.4240000000000026,6249.048845681375,11.34191170556876,4746521.905429995,290.35119267037123,3034.5880169881643,43.14784898407382,2.125287543059148,0.0020800646492659183
3.4640000000000026,6240.870541758473,11.362361678939651,4740963.39184755,290.30033005909127,3033.6429766518045,43.021273395069805,2.1279598039763594,0.0021032368856015553
3.5040000000000027,6232.688112706461,11.382812377881507,4735398.722780077,290.2493657515225,3032.6981470594997,42.894796526099334,2.1306236445607856,0.0021263813013542112
3.5440000000000027,6224.501384288182,11.403264042596614,4729827.861323976,290.1982991730969,3031.7535164940573,42.76841857280995,2.133279073140027,0.0021494979506727343
3.5840000000000027,6216.310302193127,11.42371651663978,4724250.770337349,290.14712974481847,3030.8090911188715,42.642139730503864,2.1359260979592825,0.00217258688736851
3.6240000000000028,6208.114808308536,11.444169718089347,4718667.412507913,290.0958568838618,3029.86487395938,42.51596019569833,2.1385647271468033,0.0021956481647692643
3.664000000000003,6199.914840879868,11.464623566344905,4713077.750348127,290.0444800035052,3028.9208679462,42.38988016609839,2.1411949687159906,0.002218681835724517
