time,thrust,OF,ox_tank.pressure,ox_tank.temperature,combustion_chamber.temperature,propellant_mass,propellant_CG,combustion_chamber.fuel_grain.geometry.length_regressed
0.007,237.68282811980927,3.43166626679678,3570824.32583045,278.4237395446396,2629.342392179362,51.66199480488825,2.0564492874361804,1.6132759738129078e-05
0.014,959.0009952281605,3.1619064068417098,3570107.716200571,278.41563209936515,2562.2437539145953,51.62857465122954,2.0569438008765877,3.215567839183742e-05
0.021,2012.0189576545329,3.1224482200656736,3569452.275727807,278.4082156465751,2552.8201547009676,51.597906903739116,2.057393269456017,4.7057611927054906e-05
0.028,2824.108084189809,3.0924873667258157,3568850.6235278617,278.4014069350362,2539.1165059073974,51.569665436545485,2.057803326051202,6.095810378590768e-05
0.035,3449.3351487575483,3.0742790456342446,3568295.0691377767,278.39511914577423,2530.2628915807013,51.54350872276547,2.058179763329718,7.398690900857424e-05
0.042,3912.6365112726007,3.0652752541893475,3567777.6623244397,278.38926246262645,2526.1537645457693,51.51908183644099,2.05852849531174,8.628349569353934e-05
0.049,4248.08606669903,3.0633234221690557,3567290.977581342,278.3837529596482,2525.939157076724,51.49605182169316,2.058854993873229,9.79820745697588e-05
0.056,4499.921627830598,3.0661523945247398,3566828.44652755,278.3785163737553,2528.426817031555,51.47412304359072,2.059164061674017,0.00010920431198294468
0.063,4683.368802013052,3.0717044160560647,3566384.5115854726,278.37348985399166,2532.4353154849705,51.45304457644637,2.059459736319883,0.00012005521352943573
0.07,4816.158791623763,3.07846618642788,3565954.6479818667,278.3686222189795,2537.075082692445,51.43261161232623,2.0597452881212286,0.00013062161822545654
0.07700000000000001,4911.779867880424,3.085465218659878,3565535.282438617,278.36387304322557,2541.7691905342595,51.41266209780206,2.060023289094255,0.00014097293534023027
0.08400000000000002,4980.326084446429,3.0921734395727465,3565123.6609657537,278.35921116558075,2546.214190050251,51.3930709554471,2.0602957151633885,0.0001511631470771751
0.09100000000000003,5029.255181086726,3.098367886880875,3564717.7009968404,278.35461301900233,2550.2818724961703,51.37374350453774,2.06056405679069,0.00016123334805838533
0.09800000000000003,5064.026224609458,3.1040057828321257,3564315.8505007606,278.35006103814857,2553.9621087949663,51.35460913498419,2.0608294225946784,0.00017121431164504068
0.10500000000000004,5088.607773257142,3.109134321783743,3563916.965491845,278.34554227440617,2557.2936767527144,51.33561577758256,2.0610926284978235,0.0001811287977588908
0.11200000000000004,5105.8709157408375,3.1138355390305934,3563520.209671875,278.3410472608666,2560.3353191842148,51.31672535786508,2.0613542702641054,0.00019099348410822584
0.11900000000000005,5117.885609374789,3.118196384996842,3563124.9753933717,278.33656911826705,2563.1472248202062,51.29791020782557,2.0616147803553755,0.00020082050827130188
0.12600000000000006,5126.926771519788,3.1222950362708946,3562730.8231282234,278.33210287015527,2565.5755720193306,51.27915031382245,2.0618744713304267,0.00021061865961920033
0.13300000000000006,5133.688621537062,3.1262114798258596,3562337.4360064687,278.32764492848634,2567.7013898808677,51.26043124776237,2.0621335683610993,0.0002203942799993218
0.14000000000000007,5138.397084544173,3.129992284881643,3561944.5842259116,278.3231926908301,2569.7493953057233,51.24174254688113,2.0623922346336516,0.0002301519716320831
0.14700000000000008,5141.639192879637,3.1336618442480515,3561552.101321233,278.3187442717986,2571.734040844897,51.22307663283613,2.0626505882730015,0.0002398950704249706
0.15400000000000008,5143.834752383733,3.1372512196876663,3561159.8682197053,278.3142983226046,2573.673010060687,51.20442808507602,2.062908713708197,0.00024962596475387234
0.1610000000000001,5145.2837341455115,3.140782811596704,3560767.7997756395,278.3098538786304,2575.5790576998843,51.1857930274875,2.0631666712569317,0.0002593463647079529
0.1680000000000001,5146.200378772278,3.144273000136211,3560375.8351497035,278.30541025051224,2577.46150428394,51.16716869020306,2.0634245039693755,0.00026905749455257544
0.1750000000000001,5146.7376432488245,3.1477336716250504,3559983.930895743,278.3009669458694,2579.327111020208,51.14855309477562,2.0636822425435484,0.0002787602310411764
0.1820000000000001,5147.004702459312,3.151173413189981,3559592.0560043887,278.2965236131832,2581.18076173021,51.129944828509096,2.063939908847929,0.0002884552025625839
0.22200000000000011,5147.079465967728,3.1545984088152785,3559200.1883541136,278.2920800016091,2583.0259734102374,51.111342882908005,2.0641975184428714,0.00029814286011045285
0.2620000000000001,5141.341920208243,3.161312069497218,3556957.6254389426,278.2666433497593,2586.6275563295167,51.00509779002937,2.065669163911089,0.00035341583038017374
0.3020000000000001,5136.905647579968,3.1808475315340456,3554712.3242574413,278.24116377988383,2597.138198901728,50.89892437731413,2.067141035856157,0.00040850997080091057
0.3420000000000001,5136.024056738234,3.19808459176542,3552464.4245674424,278.2156428230177,2606.419706013081,50.79282857271123,2.0686130093599253,0.00046342419050670746
0.38200000000000006,5132.379755250026,3.2194666204684945,3550215.6874331995,278.19010043299113,2617.9250590341117,50.68688907036556,2.070083821904246,0.0005181259328022181
0.42200000000000004,5131.784785382116,3.2369095819369345,3547964.632587718,278.1645197582823,2627.3171170303585,50.58103873967267,2.0715544904670096,0.0005726458795084099
0.462,5128.202097560928,3.2585309002194527,3545712.8529783147,278.1389188639006,2638.9493554951796,50.475348438229155,2.0730238748253003,0.0006269550122673578
0.502,5127.816002183878,3.2758928262766887,3543458.741433563,278.1132794403836,2648.297026015914,50.36974560064903,2.074493078838066,0.0006810861631649495
0.542,5124.283389538961,3.2977432734894863,3541203.98179668,278.0876206039255,2660.0501036038254,50.26430492042939,2.0759609022884367,0.0007350087739829922
0.5820000000000001,5124.080068869886,3.314985967136845,3538946.8571306095,278.0619227789633,2669.3331585690617,50.158949205125744,2.0774285233194294,0.0007887574581506069
0.6220000000000001,5120.500479668069,3.3371015363363763,3536689.1709351847,278.03620646225653,2681.226805700968,50.05375823919399,2.0788946620055015,0.0008422995955533321
0.6620000000000001,5120.502471957754,3.354187007555994,3534429.072943961,278.010450541299,2690.424976339579,49.9486491863346,2.0803605867026764,0.000895671999892634
0.7020000000000002,5116.848100630929,3.376611759481935,3532168.513122324,277.9846772015566,2702.4827603289273,49.84370807644193,2.081824919605267,0.0009488395179650699
0.7420000000000002,5117.082573898504,3.393494220254027,3529905.4789209235,277.9588634605237,2711.5716192773116,49.738845184103305,2.083289038815015,0.001001841673791198
0.7820000000000003,5113.320663220176,3.416281207860834,3527642.098455122,277.9330335570104,2723.8219015752643,49.63415414293151,2.0847514472582334,0.0010546402301128289
0.8220000000000003,5112.898834174204,3.4329047423791614,3525376.1622351776,277.90716223940757,2731.775771114224,49.52953685408741,2.0862136560887903,0.0011072780251794956
0.8620000000000003,5106.275311224296,3.456650093984374,3523110.01460542,277.88127623856394,2742.3224274615695,49.42509618118684,2.0876740233518265,0.0011597130812668443
0.9020000000000004,5104.726111590153,3.473234472417474,3520840.857608081,277.855343554175,2749.7012311255603,49.320708513419056,2.0891344624284116,0.0012119987057881776
0.9420000000000004,5098.196852614677,3.4966690653023,3518571.180270023,277.82939258958584,2760.107037516291,49.21648282769537,2.0905932355097434,0.0012640904709829656
0.9820000000000004,5096.591863420754,3.5133931012791013,3516298.52656161,277.8033952211828,2767.546536991351,49.11231098570902,2.0920520147717188,0.001316034907604532
1.0220000000000005,5090.209313353951,3.5368113855492282,3514025.3198659495,277.77737912825967,2777.942945888378,49.0082987371735,2.093509112991502,0.0013677891126567838
1.0620000000000005,5088.57508815238,3.5536914506598687,3511749.1968308426,277.75131722110604,2785.4505288489586,48.904342379263035,2.0949661341268566,0.001419397524060054
1.1020000000000005,5082.321926678211,3.5771214137631753,3509472.5013075466,277.7252362949399,2795.8499979294247,48.80054384489012,2.0964214509059573,0.0014708189964075672
1.1420000000000006,5080.673724194718,3.5941385600695597,3507192.941297339,277.6991100516453,2803.417287195916,48.69680290645931,2.0978766139869034,0.0015220962953635562
1.1820000000000006,5074.532643132187,3.617602057635402,3504912.796837022,277.672964580855,2813.829526783474,48.593218388831886,2.099330045014631,0.0015731897230440313
1.2220000000000006,5072.884426541852,3.634737504185763,3502629.8314821394,277.6467741963509,2821.4482268777106,48.48969282973601,2.1007832523610253,0.0016241406836980522
1.2620000000000007,5066.839153298616,3.6582555952415645,3500346.2766750515,277.62056445546864,2831.8825817465427,48.386322626062054,2.102234695983576,0.0016749106330416648
1.3020000000000007,5065.204066068829,3.675491058289824,3498059.936748067,277.59431011540346,2839.544627247806,48.28301242242844,2.103685852193337,0.001725539899158668
1.3420000000000007,5059.23910618656,3.699084455793152,3495773.008981148,277.56803636593025,2850.0102768513066,48.17985682690822,2.1051352092829996,0.001775990818300112
1.3820000000000008,5057.629743832447,3.71640181262872,3493483.324369609,277.5417182463148,2857.707683491972,48.076761967907466,2.1065842211894736,0.0018263029091840472
1.4220000000000008,5052.252907119168,3.740091234936882,3491193.059932208,277.51538073788083,2866.8509869389304,47.973821274521256,2.108031395011455,0.0018764391312147456
1.4620000000000009,5050.460605166295,3.758145347199942,3488900.0596146546,277.4889990047693,2873.317582873736,47.870941759417164,2.109478171640816,0.001926438447273032
1.502000000000001,5045.158027391585,3.781601958074546,3486606.0821238016,277.46259323633444,2881.698901940696,47.76819864209722,2.1109233451053346,0.0019762713328408234
1.542000000000001,5043.108681815272,3.7998235220703305,3484309.267284523,277.4361419741315,2888.222104218316,47.665511992196045,2.11236815161447,0.002025971234671346
1.582000000000001,5038.065848413818,3.823013056745376,3482011.3360089343,277.40966498962285,2896.5062066970054,47.562955200204854,2.113811414355824,0.0020755094596590852
1.622000000000001,5035.859621997884,3.8416289851073837,3479710.6914369245,277.38314383712026,2903.1679247055,47.46045986267392,2.115254188757422,0.0021249146331396096
1.662000000000001,5031.0505077811085,3.8646313536648305,3477408.8380075847,277.35659581194716,2911.3834826977363,47.358089906458325,2.1166954473651063,0.0021741619783090674
1.702000000000001,5028.717289798205,3.8836046043393337,3475104.38163824,277.33000478908167,2918.1705095943976,47.255785798016205,2.118136106545667,0.0022232764120934732
1.742000000000001,5024.113430257181,3.9064606418491326,3472798.6392985997,277.3033859175992,2926.3321267944675,47.15360329510419,2.119575267876344,0.0022722365212533833
1.7820000000000011,5021.677504610585,3.9257566203550938,3470490.389899905,277.27672505381463,2933.2321251256326,47.05149041142333,2.121013729409604,0.0023210640766715036
1.8220000000000012,5017.254683521956,3.948500928850789,3468180.789951589,277.25003550833316,2941.3521695971494,46.949495933280744,2.12245070293154,0.0023697405217391666
1.8620000000000012,5014.736406623989,3.968090293676422,3465868.7664973093,277.22330483536535,2948.3546827293953,46.847574320214896,2.1238868854638326,0.0024182849480035534
1.9020000000000012,5010.474050915581,3.990752594601897,3463555.338461333,277.19654476792385,2956.443773558211,46.745768398414654,2.1253215830964765,0.0024666812292868908
1.9420000000000013,5007.890510824088,4.010610487968872,3461239.5599848,277.169744318111,2963.5399492773586,46.64403814399221,2.126755406408432,0.0025149461700660963
1.9820000000000013,5004.385840771533,4.033216384154126,3458922.3317838083,277.1429138625022,2971.0411947098505,46.54242127722211,2.128187742351211,0.0025630657161438857
2.022000000000001,5003.272275367374,4.053588860561723,3456602.817265148,277.1160436674741,2976.658457648902,46.44088250522537,2.129619127397444,0.002611054715301723
2.062000000000001,5000.666798006541,4.0765124665198,3454281.6621269686,277.08914116431913,2982.96593401032,46.33944875690719,2.131049118831729,0.0026589034052809375
2.102000000000001,4999.169044207715,4.096851631165422,3451957.9539236254,277.062195726496,2988.5682297328985,46.23808174172416,2.1324783006054093,0.002706627714850826
2.1420000000000012,4996.512465969515,4.11953113563499,3449632.467699577,277.03521628883095,2994.8058077064957,46.1368137559305,2.1339061459604056,0.0027542157736442307
2.1820000000000013,4994.766925585075,4.140245527257685,3447304.5273534325,277.0081949556513,3000.5082716224238,46.035616509239034,2.135333081758474,0.0028016795048241513
2.2220000000000013,4992.0856814398785,4.162797754141802,3444974.7344581583,276.9811386570756,3006.709080828805,45.93451497450425,2.1367586969349532,0.002849009938264375
2.2620000000000013,4990.112428471926,4.183833856106536,3442642.5684145237,276.9540412952645,3012.497120902113,45.83348742967151,2.1381833152869594,0.0028962163676315247
2.3020000000000014,4987.3793486023615,4.206313603721697,3440308.4942406304,276.9269082205942,3018.6761471933423,45.73255310443383,2.139606616541593,0.0029432920840336317
2.3420000000000014,4985.192597061073,4.227626320250564,3437972.1109438315,276.89973471937014,3024.5374574497455,45.63169531370993,2.1410288455371207,0.0029902443691704936
2.3820000000000014,4982.385440577288,4.250076211803159,3435633.7781854565,276.87252492191107,3030.7063477447614,45.53092887252865,2.1424497518555192,0.0030370682416844823
2.4220000000000015,4979.99594884874,4.271630744197361,3433293.1871534768,276.84527518229544,3036.6314412054326,45.43024096650235,2.143869519735444,0.003083769439860844
2.4620000000000015,4977.0966196355375,4.294084277047179,3430950.6162445117,276.81798868881515,3042.799343263951,45.32964301839277,2.1452879524979034,0.003130344301000109
2.5020000000000016,4974.512557090923,4.315853894237443,3428605.8276810204,276.7906626191501,3048.780939750942,45.22912518824445,2.1467051878888213,0.0031767973786415143
2.5420000000000016,4971.4395401198035,4.338337459345933,3426259.03717107,276.7632994341482,3054.204272509841,45.128696292195755,2.1481210705820546,0.0032231260159628072
2.5820000000000016,4968.251037784586,4.360681968423297,3423910.0616719015,276.73589694669397,3058.669292867209,45.02834877614163,2.149535702666564,0.0032693338562779315
2.6220000000000017,4964.726471298737,4.383464507340846,3421558.863089551,276.7084546574216,3063.2165124665225,44.9280810614789,2.150949092445103,0.00331542222401587
2.6620000000000017,4961.650069961847,4.405642177313066,3419205.208639753,276.68096979183025,3067.6438131990244,44.82788364477671,2.15236137278302,0.0033613954613626613
2.7020000000000017,4958.4689773901555,4.428400597952955,3416849.271044889,276.6534443086578,3072.184029565153,44.72776359940629,2.1537724163300584,0.0034072515494061517
2.7420000000000018,4955.629230730933,4.450799668663821,3414490.9122598735,276.6258765369651,3076.6527932607487,44.62771532483139,2.1551822948850443,0.003452993309997027
2.782000000000002,4952.779643123847,4.473607427784155,3412130.2475611153,276.598267765794,3081.2006818225254,44.52774354093883,2.156590918363813,0.003498619617715278
2.822000000000002,4950.200763501454,4.496199938859624,3409767.186855585,276.5706168830597,3085.705422826898,44.4278446210467,2.157998327818111,0.003544132521149153
2.862000000000002,4947.673534329465,4.519085187338585,3407401.8062449964,276.54292472053834,3090.2665272561567,44.32802168782802,2.1594044585243855,0.003589531494742537
2.902000000000002,4945.3739925100135,4.541851269835336,3405034.047176081,276.5151905340021,3094.8033404561047,44.228272410737056,2.1608093314366297,0.0036348180768991196
2.942000000000002,4943.166830029165,4.564833312819843,3402663.959854922,276.4874148525519,3099.381458746951,44.1285988624253,2.162212898579336,0.0036799921306397885
2.982000000000002,4941.162314130877,4.5877602256083145,3400291.5064448523,276.4595971737312,3103.9478427277013,44.02899956302811,2.1636151678034823,0.0037250548565541312
3.022000000000002,4939.277989812995,4.610852526628665,3397916.7200744385,276.4317378267266,3108.5456216537737,43.92947589724852,2.165016102182162,0.003770006367105574
3.062000000000002,4937.257263164875,4.633932345476702,3395539.576456229,276.4038364672648,3112.9099724399866,43.83002694188853,2.1664157010757963,0.003814847638512505
3.102000000000002,4933.455683917765,4.657232664155583,3393160.097473501,276.37589329265063,3116.0691729731752,43.73065363231285,2.1678139348490446,0.00385957894146362
3.142000000000002,4929.3107742123275,4.680894194389402,3390778.222446544,276.3479075302222,3119.2722293738757,43.63135360154945,2.1692108256822036,0.00390420177836451
3.182000000000002,4925.412986630606,4.704048543973257,3388393.7537151445,276.31987679496655,3122.4073383911145,43.53211903662774,2.17060648102267,0.00394871967316267
3.222000000000002,4921.353281231231,4.727693317161299,3386006.827477508,276.29180262460795,3125.606391267113,43.43295548003412,2.1720007993916077,0.003993131143684648
3.2620000000000022,4917.442909650811,4.751089707412866,3383617.339950485,276.26368373522956,3128.77189042757,43.333858897516365,2.173393829254321,0.004037438280781318
3.3020000000000023,4913.4468392237095,4.774801142517454,3381225.369790508,276.23552098876206,3131.9781657391495,43.234832528775854,2.174785505410962,0.004081640456312936
3.3420000000000023,4909.542054476611,4.798400913030327,3378830.857556134,276.20731362165384,3135.168947705369,43.13587412228685,2.176175848622059,0.004125739081520193
3.3820000000000023,4905.595145490456,4.822213208078539,3376433.847991487,276.17906209696645,3138.38681840304,43.0369855678167,2.17756481502218,0.004169734022753168
3.4220000000000024,4901.706352048915,4.845993548966131,3374034.3071137373,276.15076595005286,3141.5977552480804,42.9381656365137,2.17895240957133,0.004213626298362431
3.4620000000000024,4897.79964668427,4.869928077373968,3371632.2600883236,276.1224254132751,3144.828186941936,42.83941544402982,2.180338600710685,0.004257416052886733
3.5020000000000024,4893.932187154404,4.893876069027029,3369227.687154553,276.0940401889436,3148.059618362494,42.740734333674084,2.181723384648184,0.0043011040811409135
3.5420000000000025,4890.061057925012,4.917944833445307,3366820.6024606796,276.065610379282,3151.306149787828,42.64212298957958,2.18310673676166,0.00434469067778771
3.5820000000000025,4886.02683434488,4.942054470201627,3364410.994606339,276.0371357846775,3154.0751840738385,42.54358109262452,2.18448864817312,0.00438817650223408
3.6220000000000026,4881.17216143826,4.966883235292996,3361998.8712024274,276.0086164298706,3156.185723795992,42.44510907418382,2.185869098393603,0.004431561932759374
3.6620000000000026,4875.86150712291,4.991815054254417,3359583.9247027747,275.9800486104289,3158.2970363683744,42.34669504340668,2.187248258914132,0.0044748518526885155
3.7020000000000026,4870.837576747672,5.0160821897754415,3357165.8975222213,275.95142920549597,3160.353007878974,42.2483291441178,2.188626269320484,0.004518050367744243
3.7420000000000027,4865.655485414887,5.040897155080477,3354744.9448794206,275.9227599772844,3162.4533897953756,42.150017677372524,2.1900030176227125,0.0045611556620673635
3.7820000000000027,4860.585839178318,5.065511910296584,3352320.9660775647,275.8940396586666,3164.536628724482,42.05175694998215,2.191378547497099,0.004604169569549017
3.8220000000000027,4855.464213531244,5.090384723083651,3349894.01638627,275.8652688291644,3166.640416647088,41.95354935499283,2.192752807977837,0.004647091698240302
3.8620000000000028,4850.389923300228,5.115237181032696,3347464.056084116,275.83644694245595,3168.7418585302894,41.85539359054905,2.19412580564102,0.004689922998381033
