time,thrust,OF,ox_tank.pressure,ox_tank.temperature,combustion_chamber.temperature,propellant_mass,propellant_CG,combustion_chamber.fuel_grain.geometry.length_regressed
0.007,249.20248609922382,3.438010834994485,4651991.82134879,289.4799811820019,2514.569602361473,51.064657055892766,1.991521695799196,1.9790350201228e-05
0.014,1130.854497524484,3.2308664197803396,4650794.009511618,289.468856142058,2480.4582488954343,51.02553812304086,1.992148729998587,3.946723026767972e-05
0.021,2323.6559525408034,3.1956811946929102,4649675.589353991,289.4584665181198,2474.597521815309,50.98890248227607,1.9927306303795,5.8118394268235235e-05
0.028,3270.215060748318,3.1682099510576722,4648627.751142989,289.44873085241795,2466.015024144588,50.95447959569253,1.993272591572633,7.584429837973036e-05
0.035,3998.705163827621,3.1485301426550003,4647641.114178788,289.4395623007286,2458.9098691965437,50.921980077223644,1.9937800654024258,9.275621992833178e-05
0.042,4562.49660496136,3.1357093531243194,4646706.224846575,289.4308732664071,2454.129064247512,50.89111106415269,1.9942584818522724,0.00010897006053252362
0.049,4996.087447123227,3.128531093801984,4645814.114968096,289.4225805984162,2451.603984242286,50.86159370222128,1.994712943722908,0.00012459877813199332
0.056,5330.464104370702,3.125656967845129,4644956.664418602,289.4146089725982,2450.916812719329,50.83317469645666,1.9951480354955602,0.00013974695523216908
0.063,5587.995651658456,3.125835610678694,4644126.803531691,289.40689278429346,2451.5685300239666,50.80563292520633,1.9955677230459654,0.00015450731820908573
0.07,5776.679130445668,3.128025371933937,4643318.576731776,289.39937675029984,2453.1024334031245,50.77878170455769,1.9959753297230227,0.00016895913128371206
0.07700000000000001,5915.567513085943,3.1314698672137364,4642527.104328177,289.39201556276066,2455.1790030518932,50.75246781142828,1.9963735668537153,0.00018316809167771129
0.08400000000000002,6016.824542136699,3.1356331185571045,4641748.472536667,289.3847728741298,2457.552900412173,50.72656819105617,1.9967646015054317,0.00019718736424064362
0.09100000000000003,6095.828732687575,3.1401771371949745,4640979.598965717,289.37762005240046,2460.067853503634,50.70098583552847,1.997150135598391,0.00021105910497094325
0.09800000000000003,6154.611600494409,3.1448969890336516,4640218.089644085,289.370534856231,2462.6359495561906,50.67564535179701,1.9975314879240833,0.00022481622122501178
0.10500000000000004,6198.241492629437,3.14968183094216,4639462.10600991,289.36350020149206,2465.2066376561124,50.65048881234607,1.9979096694134828,0.00023848408055499173
0.11200000000000004,6230.542377459738,3.1544734255766116,4638710.247431803,289.35650307127867,2467.759407432812,50.625472075562065,1.9982854489988535,0.00025208206121773915
0.11900000000000005,6254.388319958094,3.159245464494785,4637961.453719423,289.3495336110788,2470.2860840459657,50.60056172429635,1.998659407936688,0.00026562486092735637
0.12600000000000006,6271.933005514703,3.1639886166218547,4637214.926219569,289.3425843962347,2472.7857377882992,50.575732583792494,1.9990319835770307,0.00027912356850726225
0.13300000000000006,6284.786575698265,3.1687021591152487,4636470.065497446,289.3356498532475,2475.260954908237,50.55096575911049,1.999403503818722,0.0002925865170371335
0.14000000000000007,6294.150687752998,3.173389219516101,4635726.4228899395,289.3287258098097,2477.7155964849057,50.526247108318344,1.9997742138279782,0.00030601995071111225
0.14700000000000008,6300.920945113393,3.1780542462561225,4634983.663288804,289.32180914907923,2480.1536597855743,50.50156606910302,2.0001442965238496,0.00031942853900680714
0.15400000000000008,6305.76416923926,3.1827017628343173,4634241.536801502,289.31489754638017,2482.5787647350367,50.47691476508968,2.000513888153336,0.0003328157691560982
0.1610000000000001,6309.176458837649,3.1873358235222753,4633499.857311552,289.30798926997716,2484.9939728989148,50.452287329702976,2.000883090060015,0.0003461842435134072
0.1680000000000001,6311.526682055371,3.19195983333645,4632758.486336469,289.301083031056,2487.4017712331324,50.42767939712431,2.0012519775357656,0.00035953590363881115
0.1750000000000001,6313.088982774103,3.196576544149581,4632017.320917344,289.2941778711576,2489.804128613567,50.40308772044429,2.00162060645596,0.00037287219847526054
0.1820000000000001,6314.067034685698,3.2011881261006314,4631276.284557298,289.28727307794,2492.2025771988074,50.378509886002426,2.0019890182405753,0.0003861942101895001
0.1890000000000001,6314.612114972777,3.2057962628108965,4630535.320454413,289.2803681222622,2494.5982952977297,50.35394410011473,2.0023572435566273,0.00039950274812436306
0.22900000000000012,6314.836559514052,3.210402245916149,4629794.386455761,289.273462611264,2496.9921816457854,50.32938903008533,2.002725305077355,0.0004127984188265697
0.26900000000000013,6307.192774755963,3.2174105994082836,4625553.233818664,289.2339189375891,2500.616482991506,50.189158941811854,2.004826534042008,0.0004886349566306564
0.3090000000000001,6297.352095410215,3.2455989864119315,4621307.820229471,289.194308060494,2515.2390465274752,50.04911437883968,2.00692520238822,0.0005641259580872744
0.3490000000000001,6296.856647575007,3.2684697518983903,4617056.0301573565,289.15461009737425,2527.119695170583,49.90918847166281,2.0090223869297397,0.0006393041361118242
0.38900000000000007,6290.28961996344,3.2974233649095175,4612803.307616376,289.11487576556186,2542.144106279353,49.76954908469301,2.011115107933174,0.0007141005032184199
0.42900000000000005,6288.865778902776,3.3218988878768685,4608545.973361452,289.0750705935682,2554.85431445228,49.630080723006216,2.0132052865112646,0.0007885687763093336
0.46900000000000003,6283.539721631583,3.350114804990349,4604287.093129736,289.0352231437852,2569.4956855207956,49.490876923034676,2.0152912329174577,0.0008626723729892265
0.509,6281.485200300468,3.375442291069614,4600024.293742064,288.99531111683115,2582.644732078783,49.351863070995634,2.017374163995362,0.0009364469835632442
0.549,6276.966023875847,3.403216012292163,4595759.529815181,288.955352713962,2597.0559061450635,49.21309812507502,2.0194529915682784,0.0010098709445736096
0.5890000000000001,6274.046945782603,3.42912510504536,4591491.28682781,288.91533364941677,2609.896494750217,49.07453425481389,2.0215284723050564,0.0010829681703651384
0.6290000000000001,6267.404935681372,3.4569278057817394,4587220.837352745,288.8752657565953,2621.873233578727,48.93620929764479,2.023599886344094,0.0011557260039792685
0.6690000000000002,6260.930318010367,3.483943691835231,4582946.882153401,288.83513674644576,2633.509233981789,48.798082308570386,2.025667873673718,0.0012281651557903394
0.7090000000000002,6254.242929952442,3.5111982526624796,4578669.499331739,288.7949472410012,2645.2457492470216,48.66015465889241,2.027732345714498,0.0013002882633319937
0.7490000000000002,6247.813849935529,3.5383382445238563,4574388.5513366945,288.754695835605,2656.932008293879,48.52242117875041,2.029793327826648,0.001372100654169095
0.7890000000000003,6241.311886443365,3.565688536879282,4570104.169567313,288.71438365303607,2668.7070075656916,48.3848849226142,2.0318507050435124,0.0014436041344021643
0.8290000000000003,6234.9875059875785,3.593011682379266,4565816.296342434,288.67401003822425,2680.469260951217,48.24754321995806,2.0339044621697635,0.0015148028552525053
0.8690000000000003,6228.649884268294,3.6204909219277583,4561525.017613512,288.63357568802763,2692.297099909449,48.1103977834609,2.0359545098484673,0.0015856990789793546
0.9090000000000004,6222.441331171444,3.6479882789256735,4557230.310016187,288.5930802701011,2704.131595071599,47.973447038660886,2.038000816408968,0.0016562963848072588
0.9490000000000004,6216.2518090313,3.675610853062548,4552932.232212851,288.55252422535926,2716.0185061298594,47.83669191294265,2.0400433083643055,0.001726597259135554
0.9890000000000004,6210.162950694504,3.703278193273371,4548630.779644919,288.5119073987301,2727.9235015750482,47.70013144915024,2.042081945701964,0.001796604918427152
1.0290000000000004,6204.9102241347555,3.7310537090321856,4544325.995083051,288.47123008202686,2739.319845328117,47.56376613615336,2.0441166647014497,0.0018663219315203183
1.0690000000000004,6201.813172225277,3.7591092305408598,4540017.884318523,288.43049221803204,2749.1061307751315,47.42759537309881,2.0461474213889983,0.0019357512677233323
1.1090000000000004,6197.763994934451,3.7876466871383516,4535706.228865257,288.3896916262384,2759.053958861811,47.29161189240447,2.0481742868071224,0.0020048985685182986
1.1490000000000005,6194.3341034821,3.8155338751601784,4531390.413988788,288.3488223661341,2768.7754584594227,47.155796707973096,2.0501975328604485,0.0020737741667962105
1.1890000000000005,6190.5901556612225,3.8439905036077975,4527070.8180756625,288.3078878946988,2778.6915658127705,47.02016051469951,2.052216924661383,0.002142376214144029
1.2290000000000005,6187.21821935498,3.872187148971207,4522747.190701662,288.2668857134469,2788.515948355993,46.88469529363894,2.054232548066263,0.0022107104455140972
1.2690000000000006,6183.730245843013,3.900728573706729,4518419.739959283,288.22581766955125,2798.457734536755,46.7494066763502,2.0562442567223274,0.0022787770072010493
1.3090000000000006,6180.474822652735,3.9291805710221688,4514088.345734861,288.1846824973456,2808.367339215536,46.614290574098526,2.058252071010679,0.002346579944359821
1.3490000000000006,6177.2018999031125,3.9578586685192043,4509753.122894393,288.1434811614385,2818.353444857826,46.47934987284378,2.0602558932593813,0.002414120444208896
1.3890000000000007,6174.090176531293,3.9865362275673064,4505414.0168115515,288.10221301657054,2828.3380463926915,46.344582467033,2.062255711655478,0.0024814016672493277
1.4290000000000007,6171.0109031234815,4.015379145866423,4501071.094152085,288.06087857036175,2838.378246110757,46.20998984403522,2.0642514540519343,0.002548425292460435
1.4690000000000007,6164.798629471888,4.044268706327742,4496724.3335329965,288.01947749289565,2847.0410309625818,46.075570916067555,2.066243092881547,0.002615193994418517
1.5090000000000008,6155.675702595712,4.073814809989188,4492373.77647963,287.9780100530442,2855.0325781455867,45.94132645827027,2.068230569703772,0.002681709667230085
1.5490000000000008,6146.629443093217,4.103058356890742,4488018.859198865,287.9364707444545,2862.939469061343,45.80723959871284,2.0702141257231235,0.0027479811657211365
1.5890000000000009,6137.583132820746,4.132436744216765,4483659.588984263,287.89485949784984,2870.8803874142686,45.67331024160377,2.07219371794571,0.0028140106103609315
1.629000000000001,6128.632191425596,4.161877207423657,4479295.942163769,287.85317594773977,2878.836180088664,45.539537407191084,2.074169318997943,0.002879800437290214
1.669000000000001,6119.715741838674,4.191452293689143,4474927.949578646,287.81142024876505,2886.826189607337,45.405921718502775,2.0761408750490657,0.002945352416842774
1.709000000000001,6110.873806634831,4.22111678928903,4470555.608181158,287.7695922315977,2894.8384027136267,45.272462827273685,2.0781083493447277,0.0030106686718629357
1.749000000000001,6102.078332473747,4.250903254472575,4466178.937469426,287.7276919422292,2902.8814885268143,45.13916105292445,2.080071694493542,0.00307575103234244
1.789000000000001,6093.346957650878,4.280791427891886,4461797.941244998,287.6857192762437,2910.9500746158606,45.00601627368695,2.0820308711719635,0.003140601472067997
1.829000000000001,6084.666658302135,4.310796800872035,4457412.633329018,287.6436742249123,2919.0482869666057,44.87302867028625,2.0839858355676073,0.003205221817609326
1.869000000000001,6078.669425561407,4.340910653674914,4453023.020261425,287.60155670948814,2926.269528443759,44.7401982262062,2.085936547783402,0.0032696139444299463
1.9090000000000011,6075.847738546338,4.371509353872131,4448629.1129635535,287.5593666929721,2932.3282651526115,44.60752506344953,2.0878829661732845,0.003333779646480031
1.9490000000000012,6072.621233165535,4.402257775835415,4444230.5470636105,287.51710053058764,2938.4101610373373,44.474998591224775,2.0898252291286474,0.0033977248297868867
1.9890000000000012,6069.689038159196,4.432737114198797,4439827.015244211,287.47475511543337,2944.4379484333595,44.3426099452134,2.091763445873867,0.003461454668110191
2.0290000000000012,6066.7384253753125,4.463552954723665,4435418.674611505,287.43233180221006,2950.52892939739,44.210363563562524,2.093697503124077,0.003524969161932626
2.0690000000000013,6063.97140937845,4.494357117798375,4431005.432572917,287.38982954388484,2956.614390983496,44.078256768962895,2.0956274072159133,0.0035882710327918414
2.1090000000000013,6061.265890456689,4.525369884949104,4426587.352946356,287.3472487981768,2962.7385112156485,43.94629135146201,2.097553090269798,0.003651361258724467
2.1490000000000014,6058.69871316666,4.556456064303018,4422164.402425081,287.30458908691924,2968.875193048809,43.814466351514454,2.099474530805442,0.0037142418502072033
2.1890000000000014,6056.224714061188,4.5877015656214795,4417736.607423054,287.26185050703396,2975.041023007074,43.68278251512365,2.1013916793553897,0.0037769141414503845
2.2290000000000014,6053.873308262634,4.619055145223022,4413303.95713279,287.2190327959203,2981.2261239904683,43.551239545547034,2.103304504278798,0.003839379842728875
2.2690000000000015,6049.118646576348,4.6505504228552805,4408866.463172808,287.1761359069223,2986.1903053497103,43.419837790535446,2.105212963652584,0.0039016403966059504
2.3090000000000015,6042.151858989273,4.682754494905685,4404424.1229108265,287.13315965519035,2990.5482693821496,43.2885772067216,2.107117022485375,0.003963697372865804
2.3490000000000015,6035.15686454257,4.714685525262444,4399976.384125913,287.090098532275,2994.865624334957,43.15744237728729,2.109016900533369,0.004025558119886268
2.3890000000000016,6028.203121951017,4.74672962525038,4395523.214808993,287.0469520550423,2999.196211878939,43.02643255682414,2.1109125741928105,0.004087224388506362
2.4290000000000016,6021.288751698477,4.778915257203551,4391064.613995713,287.0037200398526,3003.543924033562,42.895547883187305,2.1128040055862822,0.004148697575293852
2.4690000000000016,6014.415971853143,4.811240486071593,4386600.578677307,286.960402282491,3007.9085166842656,42.7647884477371,2.1146911579700243,0.004209979075157083
2.5090000000000017,6007.583041688083,4.8437090102735425,4382131.1072588675,286.91699859168335,3012.2904765320977,42.63415439172893,2.1165739941332475,0.004271070245470829
2.5490000000000017,6000.790320035616,4.87632087360436,4377656.196934804,286.87350876362865,3016.6898109130098,42.50364583298933,2.118452477599363,0.00433197243399273
2.5890000000000017,5994.037028518621,4.9090781253138225,4373175.845100825,286.82993259568747,3021.106789455555,42.37326290510227,2.120326571971323,0.004392686964522914
2.629000000000002,5985.541447929581,4.941981724496612,4368690.048583683,286.7862698788851,3025.071101800759,42.24300573590688,2.1221962412769186,0.0044532151452904255
2.669000000000002,5972.412035217971,4.9752943744358555,4364198.804068153,286.74252040204664,3027.93315098163,42.11287445922766,2.1240614497675563,0.004513558264909657
2.709000000000002,5958.601532667455,5.009073185647196,4359701.871255665,286.6986816420237,3030.82595308444,41.982862707492494,2.1259222682077907,0.004573719998796318
2.749000000000002,5945.299248322804,5.0423845502168225,4355198.782346757,286.6547488472731,3033.679123227184,41.85295793961019,2.127778867727627,0.004633706262119106
2.789000000000002,5931.889415525394,5.076146464069244,4350689.739482845,286.6107237949461,3036.5662571791704,41.723166060195695,2.1296311180954786,0.004693516122469034
2.829000000000002,5918.6600270014,5.109929042352798,4346174.632493434,286.566605214625,3039.453295103157,41.59348440874184,2.131479029188961,0.004753151796821753
2.869000000000002,5905.476028334225,5.143937698485047,4341653.498342345,286.5223932710974,3042.3578569173437,41.46391436690845,2.1333225452388125,0.004812613996298465
2.909000000000002,5892.400759758225,5.178077223838909,4337126.304934126,286.4780874533336,3045.2721362574075,41.33445543827038,2.135161641295614,0.004871904107933784
2.949000000000002,5879.403376939961,5.212395568259663,4332593.052936156,286.43368756950167,3048.200062896017,41.20510803047832,2.1369962779569542,0.00493102317207883
2.989000000000002,5870.506220387877,5.246872345612626,4328053.72711753,286.38919327105583,3050.6862383095413,41.07587212829412,2.1388264229174165,0.004989972369502025
3.029000000000002,5868.473741530731,5.281793213655785,4323508.319236648,286.3446042767261,3052.394276243886,40.952178688176616,2.1407993134299774,0.005048752793661326
3.069000000000002,5864.565105560596,5.296575833655465,4318956.580787392,286.2999179444273,3053.0755582022657,40.829678990659374,2.1427976989311244,0.005107400284535095
3.109000000000002,5860.050941265164,5.308947856729594,4314399.956797227,286.2551482693566,3053.6284548758217,40.70729195839911,2.144790573428402,0.005165907840377201
3.1490000000000022,5855.603420549998,5.321165085760207,4309838.3559398865,286.2102941779778,3054.173936806276,40.585015775922415,2.146777956573488,0.005224276864592981
3.1890000000000023,5851.144187427509,5.33343148288213,4305271.8141646935,286.1653558461861,3054.721062386104,40.46285192194442,2.1487598090811835,0.005282507509415107
3.2290000000000023,5846.699873061175,5.345640629124001,4300700.289090375,286.12033267853286,3055.264921340431,40.340799859284985,2.150736127766167,0.005340600681401452
3.2690000000000023,5842.259892753154,5.357835780683881,4296123.7700313665,286.0752243900525,3055.8075132968484,40.21885987345617,2.1527068947874657,0.0053985569703833705
3.3090000000000024,5837.8282576359725,5.369999758655818,4291542.233392041,286.030030567317,3056.3480448938117,40.097031924095425,2.1546720981461145,0.005456377082331198
3.3490000000000024,5833.403231989773,5.382139519329114,4286955.660475764,285.98475084380453,3056.886838082579,39.975316102667676,2.1566317235292285,0.005514061667244064
3.3890000000000025,5828.985340120671,5.394252401497802,4282364.030391698,285.9393848299745,3057.4237704041434,39.85371245055088,2.1585857575430594,0.005571611387578738
3.4290000000000025,5824.5742206177265,5.406339565971413,4277767.322872162,285.8939321410414,3057.958895961406,39.73222103117841,2.1605341864307115,0.0056290268912759815
3.4690000000000025,5820.169859617352,5.4184006549324115,4273165.51715356,285.84839238591235,3058.492198684643,39.61084190147099,2.1624769965764887,0.005686308822547168
3.5090000000000026,5815.77210827569,5.4304359100969,4268558.592417801,285.80276517153186,3059.023690177785,39.48957512311369,2.164414174304731,0.005743457817741339
3.5490000000000026,5811.380871116291,5.4424453342895065,4263946.527616214,285.75705010112466,3059.5533709930996,39.36842075809978,2.1663457059567404,0.005800474507092713
3.5890000000000026,5807.608576194158,5.454429022698225,4259329.301537275,285.71124677484966,3060.0789301721247,39.2473788704754,2.168271577858336,0.005857359514151921
3.6290000000000027,5803.701308265176,5.466385346410744,4254706.892778221,285.6653547895022,3060.602492538248,39.126449525645484,2.1701917763303826,0.005914113456124927
3.6690000000000027,5799.6151840826205,5.478317646175044,4250079.281185471,285.61937375281536,3061.124325548217,39.00563282657812,2.172106287056193,0.005970736930559578
3.7090000000000027,5795.347591596771,5.49022374402206,4245446.444733518,285.5733032524511,3061.6443287088255,38.88492883524039,2.1740150964524347,0.0060272305445392286
3.7490000000000028,5790.895648282019,5.502104537884022,4240808.3618235355,285.52714287880127,3062.1625436696618,38.76433763055017,2.1759181906543636,0.006083594893269317
3.789000000000003,5786.256978861288,5.513959764170384,4236165.010429576,285.4808922164872,3062.6789586213185,38.64385928693536,2.1778155558882757,0.006139830568090943
3.829000000000003,5781.429393343441,5.52578961006558,4231516.36842875,285.43455084762564,3063.193582467552,38.523493882650925,2.179707178325126,0.006195938153479447
