time,thrust,OF,ox_tank.pressure,ox_tank.temperature,combustion_chamber.temperature,propellant_mass,propellant_CG,combustion_chamber.fuel_grain.geometry.length_regressed
0.007,254.74069696863603,4.349632092924799,5837746.030844701,299.5518578500175,2760.7984101704333,55.990475221131554,1.7116765056082348,1.736132204550526e-05
0.014,1285.2457122839814,4.139443436636195,5836185.507477914,299.53970354812776,2838.4465492944373,55.94910859699366,1.7127090384196433,3.464562467829388e-05
0.021,2676.5896248754784,4.0906313181434095,5834708.116131668,299.52819432690717,2857.213005615579,55.90985997472546,1.7136829170725487,5.123492638570166e-05
0.028,3800.623704866953,4.053288232970741,5833307.929230445,299.51728438923203,2862.710144291705,55.87258139456605,1.7146025139310792,6.717032722416657e-05
0.035,4673.572026524936,4.0241519038265965,5831976.196137924,299.5069058797245,2863.70890168363,55.83705268211949,1.7154741029659135,8.251793111304872e-05
0.042,5382.4081343413845,4.002439722424145,5830703.708569081,299.496987309339,2861.8419133460916,55.80304126230981,1.7163042164119733,9.734987825101268e-05
0.049,5963.872601755356,3.987284869504967,5829481.444487797,299.487458578538,2860.3688959635497,55.77031854754162,1.7170992044392315,0.0001117388879425742
0.056,6397.026201688949,3.9774278356808814,5828300.949879633,299.47825396083243,2859.585843352931,55.73866976739056,1.7178649799753036,0.0001257547180575846
0.063,6738.382792566243,3.971818976427783,5827154.646317641,299.46931450939593,2859.534578057395,55.70790196514344,1.718606816867785,0.0001394611043009148
0.07,6999.812402640219,3.969338766697589,5826035.926923162,299.4605888142187,2860.0724451950637,55.677846608841236,1.7193292934613458,0.00015291448752533112
0.07700000000000001,7201.048782728639,3.969175164633267,5824939.208813317,299.45203341944506,2861.0666222119758,55.648361074563695,1.7200362651956476,0.00016616316124557068
0.08400000000000002,7355.436134650917,3.9706513973948816,5823859.8649943145,299.4436122995999,2862.3832242056715,55.61932701861683,1.7207309181260286,0.00017924755161824807
0.09100000000000003,7473.539425051138,3.973273159381532,5822794.131890244,299.4352961445722,2863.9169955776724,55.59064809351428,1.721415837492799,0.00019220079926217682
0.09800000000000003,7563.652070362266,3.976687304257276,5821738.992559801,299.4270614537618,2865.592934100471,55.56224701356011,1.7220930914201544,0.0002050496316276103
0.10500000000000004,7632.240910112108,3.9806478931125726,5820692.056578467,299.4188896030994,2867.3556026931283,55.534062513340785,1.722764315687625,0.00021781532425006086
0.11200000000000004,7684.317903529944,3.984986474990397,5819651.447258375,299.4107659683439,2869.17538734541,55.50604647897109,1.7234307925805523,0.0002305146391557614
0.11900000000000005,7723.75381071293,3.989587970562376,5818615.701735609,299.40267914797056,2871.0303158596676,55.47816139913524,1.7240935203036079,0.00024316067698870196
0.12600000000000006,7753.527604734075,3.9943741837462197,5817583.6861174125,299.394620302922,2872.9034027350617,55.45037819601187,1.7247532716669958,0.0002557636127513635
0.13300000000000006,7775.923822700301,3.9992917334363765,5816554.525291135,299.3865826102632,2874.7890560401106,55.42267442851626,1.7254106424662683,0.00026833131146443
0.14000000000000007,7792.692507029888,4.004303721097709,5815527.546082678,299.37856082062245,2876.6825208735636,55.39503283587074,1.7260660905568181,0.0002808698307930635
0.14700000000000008,7805.171785042375,4.009384481222894,5814502.231978668,299.3705509055837,2878.580683120208,55.36744017670206,1.7267199669133921,0.0002933838237252056
0.15400000000000008,7814.3834871090285,4.014515935004688,5813478.187429238,299.3625497796296,2880.481729147937,55.339886313377264,1.7273725400745192,0.00030587685733696424
0.1610000000000001,7821.107184775574,4.019685192823073,5812455.109954479,299.35455508282877,2882.384615179137,55.312363496308414,1.728024015214937,0.00031835166258105277
0.1680000000000001,7825.937202256616,4.024882962445624,5811432.768491104,299.34656501210856,2884.288750005614,55.28486580827635,1.7286745489323234,0.0003308103285699435
0.1750000000000001,7829.276029219688,4.0301024776275,5810410.986664914,299.3385781908888,2885.8956998773224,55.25738873513022,1.7293242606573487,0.0003432544528525031
0.1820000000000001,7831.4722239835,4.035354150813566,5809389.629916124,299.3305935687268,2887.3991551520053,55.22992883536419,1.7299732414267008,0.00035568525716620555
0.1890000000000001,7832.794911865685,4.040624832121342,5808368.5917249825,299.32261031384115,2888.9036988877338,55.20248338698819,1.7306215632209512,0.0003681037108815176
0.19600000000000012,7833.448276037235,4.045906437296937,5807347.789505298,299.31462778115235,2890.4080314047783,55.175050281907076,1.7312692817833086,0.0003805105682369173
0.23600000000000013,7833.588225816777,4.051196866017496,5806327.160291551,299.30664547868065,2891.912318917957,55.1476279151203,1.7319164395644153,0.00039290640730082625
0.27600000000000013,7824.038495892906,4.05866628480843,5800490.760580485,299.26097763986684,2893.9875024499156,54.99100631198664,1.7356062998250075,0.0004636209727868515
0.3160000000000001,7810.471272951314,4.090728242214929,5794653.298737031,299.2152647115354,2903.0310411668083,54.8345667479228,1.7392823276044207,0.0005340367375203012
0.3560000000000001,7803.103060063169,4.119300665927247,5788812.402669782,299.1694880240129,2911.1132808830303,54.678250370884456,1.742946075658331,0.0006041771371714192
0.3960000000000001,7792.311877804015,4.15082793355865,5782971.4040843,299.1236736036386,2920.017110758126,54.522143583409125,1.7465953187550134,0.0006740153800546757
0.43600000000000005,7782.984272018287,4.180969599851366,5777128.635017719,299.0778082979254,2928.5339140599376,54.36620541996287,1.7502311454404167,0.0007435686221683777
0.47600000000000003,7772.410983205396,4.211980995960972,5771284.911036473,299.031898430985,2937.2906768972366,54.210458071910075,1.7538530062361943,0.0008128322199796704
0.516,7762.085089820412,4.242637678172625,5765439.699181025,298.98593974012226,2945.9471540385507,54.05488945427072,1.7574612382768455,0.0008818132377915792
0.556,7751.200404367837,4.2736015640788905,5759593.188851578,298.93993363534315,2954.6872021441627,53.89950579619469,1.7610557062750174,0.0009505124197945263
0.5960000000000001,7740.212492414445,4.304516430487532,5753745.1831555795,298.8938784877647,2963.4119624380173,53.74430352244571,1.764636527131159,0.001018933801198009
0.6360000000000001,7729.341706240298,4.335576462854893,5747895.693935064,298.8477743090472,2971.6451978240943,53.58928432632198,1.76820368256239,0.0010870795742255752
0.6760000000000002,7719.549482727602,4.366850209271019,5742044.622247537,298.8016202366185,2978.1913404586803,53.43444708657328,1.771757226249097,0.0011549528349876195
0.7160000000000002,7710.285716213941,4.398592370807047,5736191.6991304485,298.75541406229496,2984.8244836590825,53.27978639601155,1.7752973201040783,0.0012225580639110497
0.7560000000000002,7701.564398985212,4.429853657185963,5730336.197058721,298.7091499461184,2991.356897912722,53.12528534153357,1.7788244151359565,0.001289903519881093
0.7960000000000003,7692.674099337986,4.461450161904735,5724478.322318568,298.66282941609876,2997.9558427273096,52.97095051780957,1.7823383654718283,0.001356989512720071
0.8360000000000003,7683.9696868982055,4.493009207470552,5718617.88173876,298.61645084266195,3004.5452443173367,52.816778463076545,1.7858392796604554,0.001423819677367016
0.8760000000000003,7675.276895285653,4.524718112124417,5712754.88318816,298.57001418382555,3011.163359310766,52.66277075300077,1.7893271390631214,0.001490395922973101
0.9160000000000004,7666.679051823276,4.556486435737669,5706889.237630127,298.52351862897336,3017.791754262003,52.508926521857816,1.7928019864190177,0.0015567209300752088
0.9560000000000004,7658.133838548104,4.588360219890656,5701020.904418979,298.4769637488554,3024.4398308491723,52.35524610502901,1.7962638342514106,0.0016227969394611266
0.9960000000000004,7649.660215482114,4.6203183879559155,5695149.820265253,298.4303489329199,3031.103310054552,52.20172926101638,1.799712709443731,0.0016886263431564923
1.0360000000000005,7644.819021659076,4.6523728407934835,5689275.933898115,298.38367366411853,3036.3843452239903,52.04837603818751,1.803148631560785,0.0017542113986024894
1.0760000000000005,7640.630019126065,4.68504305231692,5683399.189129664,298.336937384548,3041.110629629698,51.89518635223716,1.8065716233795746,0.0018195543690104042
1.1160000000000005,7636.422571209599,4.7174700201515165,5677518.874826168,298.290134319396,3045.797926700396,51.742143861618516,1.8099821080599285,0.0018846627794376015
1.1560000000000006,7632.351489145957,4.749967103794214,5671634.886577796,298.24326350985353,3050.493168724361,51.58924734040418,1.813380132857344,0.0019495391468579162
1.1960000000000006,7628.415135501112,4.782569817672286,5665747.17214627,298.1963244100066,3055.2015093818195,51.43649685226087,1.816765713010147,0.0020141855315359033
1.2360000000000007,7624.619003019973,4.815273702297477,5659855.674704702,298.14931643546186,3059.922341436953,51.28389233938959,1.8201388666456222,0.0020786039997782112
1.2760000000000007,7620.9622897955005,4.8480827898383065,5653960.341059761,298.1022390288721,3064.656238261888,51.13143382643824,1.8234996097647458,0.0021427965584057676
1.3160000000000007,7617.446977661503,4.880996935883777,5648061.117185668,298.055091624338,3069.4016120433425,50.97912131015442,1.8268479589448812,0.0022067651913322646
1.3560000000000008,7614.073218203876,4.914018067683374,5642157.9500820115,298.00787366223744,3074.1599159102793,50.82695480550805,1.8301839302071907,0.0022705118453617457
1.3960000000000008,7605.364183603309,4.947146517597225,5636250.78661075,297.96058457993547,3078.1764753985167,50.674934317234005,1.8335075397046772,0.002334038440060628
1.4360000000000008,7589.233686869909,4.980723199979064,5630339.574573717,297.9132238204063,3081.294657015496,50.52305986655073,1.8368188030697825,0.0023973468598603577
1.4760000000000009,7572.576860190577,5.0144697396695355,5624423.858379014,297.86578758868524,3084.4208598578584,50.37132159614768,1.8401179730889317,0.0024604421038330244
1.516000000000001,7556.309660264488,5.0480081906986936,5618503.22446789,297.81827241458063,3087.5270700376172,50.219710731488945,1.8434052738091298,0.0025233287662616605
1.556000000000001,7540.070048585917,5.081776420626332,5612577.738767115,297.77067866910875,3090.652430507447,50.06823024576629,1.8466806461849605,0.0025860076657309504
1.596000000000001,7523.986788009835,5.115621925804058,5606647.303378498,297.7230054069494,3093.7833652957493,49.916879098844035,1.849944127420277,0.0026484808713828074
1.636000000000001,7508.011398810782,5.149602223233304,5600711.880694963,297.6752521648149,3096.9249953381536,49.76565771923892,1.8531957194165263,0.0027107499602832207
1.676000000000001,7492.159413074666,5.183697994270262,5594771.411670774,297.6274183050836,3100.075603508428,49.61456600833664,1.8564354365267377,0.0027728166509987428
1.716000000000001,7476.423391527361,5.21791787032821,5588825.845398337,297.579503253525,3103.2359584555184,49.46360406174607,1.859663288339405,0.002834682575923283
1.7560000000000011,7467.666866563858,5.252260364389013,5582875.128429045,297.5315064133909,3105.7196327838224,49.312771909498714,1.8628792858570136,0.002896349363792323
1.7960000000000012,7464.806430476105,5.28706117167811,5576919.208597706,297.48342719620376,3107.5917723904176,49.1620696091795,1.8660834392832246,0.0029578186108807102
1.8360000000000012,7461.728209688768,5.321950691769021,5570957.656978331,297.4352619661639,3109.4631280904605,49.01148812727428,1.8692759715079759,0.0030190947187858654
1.8760000000000012,7458.920624663182,5.356758187220566,5564990.191173315,297.3870082604474,3111.3270116713693,48.861022015951036,1.8724570191226877,0.003080180925659456
1.9160000000000013,7456.292178151215,5.391766102385828,5559016.829238776,297.3386660403829,3113.2002365927933,48.71067308483083,1.8756265481562315,0.0031410781838973126
1.9560000000000013,7453.874460029589,5.426887559355935,5553037.494363513,297.2902344983227,3115.0784286618627,48.56044085324244,1.8787845781078842,0.0032017881372752594
1.9960000000000013,7451.664271398736,5.46215019984409,5547052.13851145,297.24171305713446,3116.962999630664,48.41032553192791,1.881931112170652,0.0032623121939549114
2.0360000000000014,7449.668242222374,5.497547713495478,5541060.705563813,297.1931010720002,3118.8536238435154,48.2603271358369,1.8850661579321468,0.0033226518022186095
2.0760000000000014,7447.89053193108,5.533083592285847,5535063.141901583,297.14439791609584,3120.7504770340197,48.110445738652516,1.8881897214491061,0.003382808372089173
2.1160000000000014,7438.4975642893205,5.568758530674513,5529059.3933746675,297.09560295602,3121.75481598328,47.960681400230996,1.8913018089281781,0.0034427832981406632
2.1560000000000015,7427.517564878803,5.605031461921231,5523049.406150662,297.0467155586692,3122.674772910549,47.811034187101214,1.8944024262489443,0.0035025779535744128
2.1960000000000015,7416.712458607021,5.641033200971617,5517032.634600479,296.9977310830569,3123.587414594427,47.66149248324715,1.897491845563438,0.0035621972506714086
2.2360000000000015,7405.918862933181,5.677257994736887,5511009.111261365,296.94864958523414,3124.505115563293,47.51205846331946,1.900570022115047,0.003621641859731643
2.2760000000000016,7395.1675670050345,5.713616004585943,5504978.763450185,296.89947026282306,3125.4256385237954,47.3627317970654,1.9036369683240495,0.003680913198553811
2.3160000000000016,7384.45189718074,5.750126307045193,5498941.538767725,296.8501924761687,3126.3494513547025,47.21351263684538,1.9066926854092725,0.0037400125203228478
2.3560000000000016,7373.77254912754,5.786786865188722,5492897.380918348,296.8008155514116,3127.2758789442273,47.06440104325179,1.9097371764925108,0.0037989410889637336
2.3960000000000017,7363.130306163684,5.823599025222259,5486846.234398324,296.75133881868527,3128.203308286522,46.91539709647718,1.9127704440618487,0.0038577001456124053
2.4360000000000017,7345.206632178103,5.860562242346281,5480788.044359751,296.70176161101443,3128.6947169138375,46.76650089312031,1.9157924900466097,0.003916290909956801
2.4760000000000018,7322.227708080359,5.897890843314,5474722.758475365,296.6520832796025,3128.891454755972,46.617712589957165,1.918803314841895,0.003974714567477444
2.516000000000002,7299.430786083128,5.935313061383456,5468650.106635343,296.6023013871365,3129.086518818391,46.46902724506921,1.9218030322251656,0.004032973812966025
2.556000000000002,7277.012720958737,5.972806601697493,5462569.9426086405,296.55241450449074,3129.282102401614,46.32044285023143,1.9247916892884285,0.004091070436739521
2.596000000000002,7254.881422376329,6.010486911546948,5456482.23520734,296.5024221425169,3129.478595565177,46.171960098575234,1.9277692725582352,0.004149005404012545
2.636000000000002,7233.048076106642,6.048326915883544,5450386.920883387,296.4523235440775,3129.6758494213614,46.02357892755103,1.9307357851970874,0.004206779891308427
2.676000000000002,7211.504872445522,6.08633272742905,5444283.9415011145,296.40211799373526,3129.873896747434,45.875299403999904,1.9336912272722246,0.004264395021830565
2.716000000000002,7190.246500083751,6.12450543863591,5438173.238237192,296.35180476768176,3130.07273684226,45.72712158162166,1.9366355989226565,0.0043218519083154895
2.756000000000002,7174.6628741765235,6.16284663017711,5432054.752208712,296.30138313887255,3129.9552690614987,45.57904551581776,1.9395689000271343,0.004379151648864905
2.796000000000002,7162.77049016873,6.201489101389801,5425928.424451774,296.2508523768299,3129.608534155529,45.43107126336024,1.9424911302089574,0.004436295327299322
2.836000000000002,7150.799375714943,6.240270184502568,5419794.065871572,296.2002106735296,3129.2594973920204,45.28319588258907,1.9454023540398773,0.004493284895284703
2.876000000000002,7138.8824757536095,6.279161678336799,5413651.5557410875,296.1494567794868,3128.906990214916,45.13541803242612,1.9483026003737283,0.0045501218140805025
2.916000000000002,7126.984735855506,6.318246386173053,5407500.852778342,296.098590097868,3128.5529126436213,44.987738212126146,1.95119185769907,0.004606806989670359
2.956000000000002,7115.111348813096,6.357506150504305,5401341.894032587,296.04760985004987,3128.1976294079923,44.84015642482182,1.9540701250695511,0.0046633414612584235
2.996000000000002,7103.261640233734,6.396945496450523,5395174.6200269405,295.99651528319725,3127.8411058014926,44.69267275798759,1.9569373994729997,0.004719726230736829
3.0360000000000023,7091.434988957488,6.436566079836096,5388998.970998904,295.9453056391827,3127.483322478266,44.545287296917934,1.9597936777084253,0.004775962288330908
3.0760000000000023,7091.595040140911,6.476369519163469,5382814.886954025,295.8939801550009,3126.7801409105864,44.39800012614803,1.962638956352011,0.004832050612390187
3.1160000000000023,7094.205429807669,6.51648130142942,5376622.307753375,295.84253806346635,3126.0103431467164,44.25081133163094,1.9654732317076202,0.004887992168960766
3.1560000000000024,7097.383827013966,6.556684756064099,5370421.055075714,295.7909776113172,3125.2392307929977,44.10371832011671,1.9682965566331443,0.00494378868713456
3.1960000000000024,7101.19259545249,6.597078331301364,5364211.072726953,295.73929805552086,3124.4652617890292,43.956721292839305,1.9711089239639095,0.004999441071784825
3.2360000000000024,7105.657534532775,6.637666460493957,5357992.301965027,295.68749862886614,3123.688270975465,43.815517700738965,1.9740764125672872,0.005054950232129714
3.2760000000000025,7101.382977962979,6.650672277562688,5351764.679609292,295.635578524077,3123.3643974079637,43.67444367682221,1.9770342519084751,0.005110350392006428
3.3160000000000025,7098.523875106034,6.6639506385307525,5345529.885849902,295.58355148506456,3123.052271002982,43.53347957265419,1.979979901685346,0.005165631065650543
3.3560000000000025,7095.735863502578,6.677994027527509,5339288.608273318,295.5314230112814,3122.7242246836067,43.392641843090615,1.9829130143746045,0.005220787975235469
3.3960000000000026,7092.952877436599,6.691830302500911,5333040.5892408835,295.47919071654115,3122.3973752318207,43.251926232894746,1.9858337090016482,0.005275822978692633
3.4360000000000026,7090.233623381783,6.705645873468892,5326785.789351434,295.42685403271815,3122.0708656853644,43.11133326413592,1.9887419965957365,0.005330736513038815
3.4760000000000026,7087.569337260422,6.7194331333513775,5320524.154769848,295.37441226850694,3121.744733511815,42.970863143001125,1.9916378948661204,0.005385529103754401
3.5160000000000027,7084.960544366738,6.73318811826426,5314255.628259084,295.32186470137486,3121.4190624388507,42.8305160018931,1.9945214227402617,0.005440201293018345
3.5560000000000027,7080.8516758960795,6.7469119693007755,5307980.153860026,295.2692106166968,3121.0757510541202,42.690292001477744,1.9973925980930676,0.005494753609661095
3.5960000000000027,7069.679341515187,6.760609454364498,5301697.67554896,295.2164492965059,3120.650466656213,42.550191301653975,2.000251438398038,0.00554918657779646
3.636000000000003,7058.493923494357,6.774293199180249,5295408.132869409,295.1635799827369,3120.225107072007,42.410213967732304,2.003097962782911,0.005603500744351599
3.676000000000003,7047.339301712335,6.787926161416008,5289111.450417633,295.11060178852824,3119.8010035762554,42.27035974569137,2.005932196898515,0.005657696744652678
3.716000000000003,7036.2046751617345,6.801531505742321,5282807.576391991,295.0575140224113,3119.3775444741627,42.13062889205744,2.008754154772369,0.005711775059517229
3.756000000000003,7025.090261576814,6.815105924673893,5276496.454797529,295.0043159548056,3118.954802158582,41.991021574305734,2.0115638519836794,0.005765736191191629
3.796000000000003,7013.995988015599,6.828649323203454,5270178.029682203,294.9510068535936,3118.532779644926,41.85153796239518,2.014361303658223,0.005819580636572481
