time,thrust,OF,ox_tank.pressure,ox_tank.temperature,combustion_chamber.temperature,propellant_mass,propellant_CG,combustion_chamber.fuel_grain.geometry.length_regressed
0.007,250.7588039983701,3.6873834715781055,5088120.64801466,293.393302042411,2638.4526511237787,56.51264991475403,1.8382907650149263,1.6999107859176266e-05
0.014,1165.9868682511578,3.4836821308279635,5086859.082181497,293.382359023493,2640.832354061682,56.4730154041946,1.8390721184096408,3.391200082429045e-05
0.021,2420.6514138040743,3.445508589921669,5085673.970652717,293.37207727934424,2641.894286601322,56.435692797017154,1.8398029549925743,5.0020675144264875e-05
0.028,3427.104243548357,3.4158379603802578,5084558.268745521,293.3623960321837,2636.626796702923,56.400472742292095,1.8404880934414882,6.538953726089412e-05
0.035,4221.941241896247,3.393583285904779,5083503.594673139,293.3532428376404,2629.509253745578,56.367104979261796,1.8411331749134439,8.009914061636218e-05
0.042,4844.914129815601,3.3780783817251634,5082501.302027379,293.34454289189813,2624.188533091088,56.33533041296605,1.841743960800804,9.423538159308643e-05
0.049,5330.377545478898,3.3682070983141914,5081542.994067296,293.3362235012615,2620.8583555812056,56.30489663082699,1.8423260023962256,0.00010788395453106618
0.056,5706.753811592196,3.362828812004974,5080620.92537917,293.3282175767612,2619.3060654821593,56.27557016067955,1.8428843881999435,0.00012112567149288014
0.063,5993.525652185129,3.360808416826727,5079728.215561712,293.3204654980473,2619.1506885634444,56.24714312020238,1.8434236149256122,0.00013403363969285759
0.07,6214.196753868272,3.3611600123823764,5078858.947240513,293.3129159729082,2619.996493872881,56.21943637800302,1.8439475332829367,0.0001466716733340533
0.07700000000000001,6382.474926942921,3.363098147430551,5078008.166522413,293.30552604893523,2621.5074208749215,56.19229973608266,1.8444593555737805,0.00015909383529296564
0.08400000000000002,6510.388915380433,3.3660484876760624,5077171.818337017,293.2982605586745,2623.4290804496686,56.16561009875887,1.844961703600244,0.00017134479639442247
0.09100000000000003,6607.366150232108,3.3696122193197695,5076346.643154986,293.2910912281496,2625.586029464048,56.13926842898135,1.8454566797498344,0.0001834607262516801
0.09800000000000003,6680.711968751531,3.373537736958584,5075530.0597282685,293.2839956628222,2627.8688566648852,56.11319624600796,1.8459459456245135,0.00019547042799994928
0.10500000000000004,6736.062750503186,3.3776645977105058,5074720.04610779,293.27695631754585,2630.208843564794,56.087332045566434,1.8464308006437296,0.00020739655900722592
0.11200000000000004,6777.748020487849,3.381895391928321,5073915.032656991,293.26995956984933,2632.566599475433,56.06162806754831,1.84691225213961,0.00021925676362335913
0.11900000000000005,6809.075408867354,3.38617546068314,5073113.809725764,293.2629949198728,2634.9235715082327,56.036047498842755,1.847391075491896,0.0002310646714638141
0.12600000000000006,6832.564163260401,3.3904749140767074,5072315.4501093365,293.25605431819497,2637.2703194676765,56.01056211967505,1.8478678644115591,0.00024283074804713954
0.13300000000000006,6850.127802747643,3.394778415683193,5071519.246051519,293.2491316195968,2639.6036060344313,55.98515038900476,1.8483430716634683,0.0002545629927235493
0.14000000000000007,6863.216921934137,3.399078813124761,5070724.659023924,293.24222214750847,2641.923198184654,55.95979591692471,1.8488170414517897,0.0002662674989097737
0.14700000000000008,6872.92951526324,3.4033733763974645,5069931.280260824,293.2353223516714,2644.2301550573666,55.9344862635738,1.8492900348212848,0.0002779488964639136
0.15400000000000008,6880.095420443037,3.4076616317361705,5069138.800070588,293.2284295418869,2646.5270878455212,55.909212004850296,1.8497622493797847,0.00028961069683038207
0.1610000000000001,6885.341589311695,3.4119441433760795,5068346.984158366,293.2215416825609,2648.8159004858753,55.88396601145962,1.85023383449588,0.0003012555599313177
0.1680000000000001,6889.1412370726775,3.416221888149638,5067555.655468241,293.2146572351197,2651.098330501927,55.85874289599637,1.8507049029417806,0.00031288549914301733
0.1750000000000001,6891.851347924924,3.4204959193764193,5066764.680315403,293.20777503764026,2653.3758626019558,55.83353859067835,1.8511755397774694,0.0003245020379812529
0.1820000000000001,6893.76594974319,3.424767215257714,5065973.957831521,293.2008942132254,2655.423203151367,55.80835002599845,1.8516458091070844,0.00033610632940594547
0.1890000000000001,6895.043735055454,3.429051808265338,5065183.411951757,293.19401410043446,2657.3209852247746,55.7831748867972,1.8521157592047173,0.0003476992464075462
0.19600000000000012,6895.805004507241,3.4333451046202965,5064392.9818407595,293.187134170075,2659.221180750976,55.758011321483515,1.8525854286134629,0.00035928148964040464
0.23600000000000013,6896.177785927726,3.4376374561844867,5063602.619370354,293.18025400332425,2661.1198611148384,55.73285786507051,1.853054847764398,0.0003708536161287664
0.27600000000000013,6888.901722980328,3.444076314919042,5059079.93019047,293.1408677628638,2663.9453884032514,55.58920017005964,1.85573427600979,0.00043686881473696857
0.3160000000000001,6879.494385114535,3.4703414082819255,5054554.082615087,293.10142692690715,2675.5274274889207,55.445710340389965,1.8584088907174983,0.0005026154306382462
0.3560000000000001,6877.336561341515,3.492327492875976,5050022.977289005,293.0619130869349,2685.2381850431407,55.30232470074314,1.8610799685744466,0.0005681193703988356
0.3960000000000001,6871.2077703174145,3.518558693797336,5045490.671798682,293.0223615312002,2696.811401102767,55.159164755594,1.8637449262873835,0.0006333387333272392
0.43600000000000005,6867.996273579787,3.5421589409171896,5040954.814761405,292.9827516590142,2707.2293269617735,55.01615923975457,1.8664052015771964,0.0006983021449801176
0.47600000000000003,6862.948390974256,3.5676622028986498,5036417.0745322835,292.94309795191134,2718.480429839886,54.8733575834006,1.869059719077694,0.000762994152654247
0.516,6859.271212940517,3.591952235680168,5031876.350982962,292.90339071357056,2729.1988107906795,54.730726260693984,1.871709131023831,0.0008274294363734918
0.556,6854.782087031711,3.6171603957624647,5027333.41812776,292.8636366266113,2740.318415465782,54.58828783709981,1.8743529244379185,0.0008916022879554626
0.5960000000000001,6850.965861627728,3.6418247175334937,5022787.7719968315,292.82383119720737,2751.19883020223,54.44602672472938,1.8769913799175386,0.0009555207545253718
0.6360000000000001,6846.806971863789,3.6669519735252742,5018239.780438752,292.7839775613381,2762.2809687635568,54.30395334776722,1.879624239259693,0.001019183461544559
0.6760000000000002,6842.999084130689,3.6918489045890155,5013689.213877193,292.74407362303924,2773.2613304021247,54.1620603641782,1.8822516135637566,0.0010825953819995938
0.7160000000000002,6839.064653338894,3.7169958829939618,5009136.252083737,292.70412087380697,2784.3501808961164,54.02035261183915,1.8848733626272127,0.0011457570821241413
0.7560000000000002,6834.404142064369,3.7420610314687113,5004580.792612105,292.66411833018833,2793.935763976068,53.87882657261331,1.8874895200586206,0.0012086720770321038
0.7960000000000003,6828.102178566923,3.767837203452683,5000022.9270772105,292.6240667118403,2803.173316658983,53.73748449044871,1.8901000012775802,0.0012713417896294014
0.8360000000000003,6822.039166004957,3.793120495892322,4995461.931774441,292.5839595683829,2812.2328863029466,53.59630460229935,1.8927052172203969,0.0013337760951732736
0.8760000000000003,6815.83328861669,3.8186283632666025,4990897.927012008,292.5437978609665,2821.370640051589,53.45529011586318,1.8953050640414957,0.0013959759527052544
0.9160000000000004,6809.80234900176,3.8440695252102284,4986330.809499745,292.5035805837374,2830.483377258576,53.314437669585566,1.8978995739971465,0.0014579446078706061
0.9560000000000004,6803.751037682852,3.8696526826719793,4981760.656002829,292.4633083151854,2839.645180115315,53.17374921253501,1.9004886708197486,0.001519683399819835
0.9960000000000004,6797.803966823269,3.895246906573666,4977187.432060841,292.42298065423165,2848.809627759554,53.03322344096258,1.9030723458892702,0.001581194779633555
1.0360000000000005,6791.880076682376,3.920938031803653,4972611.174523194,292.3825978281182,2858.007164805652,52.892861154464626,1.9056505481383181,0.0016424804289886044
1.0760000000000005,6786.030044094332,3.9466717024752715,4968031.874028964,292.3421596564778,2867.2185397053395,52.752661812890636,1.9082232547152302,0.00170354246751496
1.1160000000000005,6780.219999829083,3.9724841625634397,4963449.55043885,292.30166621671384,2876.4566049825557,52.612625742044216,1.9107904257362156,0.001764382682550775
1.1560000000000006,6774.470455779455,3.998352989120364,4958864.204322155,292.261117415753,2885.713431514538,52.47275271705579,1.9133520332834921,0.0018250030236516312
1.1960000000000006,6768.766937554513,4.024293800837416,4954275.8482219195,292.22051326621744,2894.9945602929724,52.333042873318355,1.915908042750997,0.0018854052865227302
1.2360000000000007,6761.280799797009,4.050297508360562,4949684.486494709,292.1798537082039,2902.411771698579,52.19349611965,1.9184584248197547,0.0019455913171616364
1.2760000000000007,6752.384331219035,4.077004733123204,4945090.128351175,292.13913872463235,2909.8626444974025,52.054112516791314,1.921003147715769,0.002005562881556005
1.3160000000000007,6744.101719574754,4.103036459400823,4940492.063437594,292.0983619147855,2917.1246268303853,51.91487138029886,1.9235426017133177,0.0020653288211227253
1.3560000000000008,6735.51142927465,4.129514509792475,4935890.594677546,292.0575258552657,2924.507202313387,51.77578135592839,1.926076580579029,0.0021248878634683673
1.3960000000000008,6727.18336151932,4.15583237451415,4931285.534521931,292.01662877257945,2931.8442131590973,51.63683694182844,1.9286051661975285,0.002184243560278914
1.4360000000000008,6718.776901219152,4.182364312194055,4926677.001395529,291.97567160834876,2939.23856794566,51.498041464696406,1.9311282617885406,0.0022433964198678084
1.4760000000000009,6710.495409002446,4.2088861649255005,4922064.930908915,291.93465368037755,2946.628681913377,51.359393001592274,1.933645877567394,0.002302348717275322
1.516000000000001,6702.215837863532,4.235534545970071,4917449.368225284,291.89357527982605,2954.0520864825285,51.22089278579652,1.9361579603717376,0.002361101630238114
1.556000000000001,6694.011001099429,4.2622279644375265,4912830.292279369,291.85243610857,2961.48641943423,51.08254016127235,1.9386644957787176,0.002419656954856776
1.596000000000001,6685.83614344348,4.289016804114493,4908207.721449452,291.8112362192517,2968.9455153237354,50.94433561028679,1.941165446884871,0.0024780160793763935
1.636000000000001,6677.717154139019,4.315871665202771,4903581.650002254,291.76997544947875,2976.421319416616,50.8062789353187,1.9436607910024528,0.0025361805996830192
1.676000000000001,6670.5282003560815,4.34281144555749,4898952.0863527525,291.72865376266367,2982.858723414995,50.66837035135471,1.9461504976212387,0.0025941519511346973
1.716000000000001,6663.438424522181,4.370210494166975,4894319.030032082,291.6872710426801,2988.478129743212,50.53060982918371,1.9486345416222461,0.002651931630088128
1.7560000000000011,6656.106498457285,4.397551459974473,4889682.076578723,291.64582356061044,2994.081221299677,50.392985914862805,1.9511131271886801,0.0027095249208181887
1.7960000000000012,6648.909389039393,4.424808782051963,4885041.067506362,291.6043097777143,2999.6656832667895,50.25549419244916,1.9535863169431205,0.0027669347104154955
1.8360000000000012,6641.6954678808015,4.452223800206303,4880396.059022264,291.5627300732379,3005.280271699109,50.118136340969414,1.9560540516988183,0.0028241618301159442
1.8760000000000012,6634.551688519548,4.479682613189189,4875747.017275372,291.5210840204232,3010.902126435036,49.980911501163604,1.9585163234970662,0.0028812079376732244
1.9160000000000013,6627.429927213474,4.50725081437699,4871093.959897837,291.47937165288704,3016.544426458878,49.843820275565065,1.9609730955624927,0.0029380741866293016
1.9560000000000013,6620.355797045571,4.5348934383606645,4866436.876071367,291.4375927489487,3022.200159717804,49.706862472982436,1.9634243473653383,0.0029947619756071527
1.9960000000000013,6613.314489671923,4.562630940069245,4861775.7702785665,291.39574722362266,3027.873434520779,49.57003834067784,1.9658700500229591,0.0030512725404698475
2.0360000000000014,6606.31334870767,4.590453181303846,4857110.6382690435,291.3538349131144,3033.5622233776553,49.43334788847288,1.9683101797600937,0.0031076071780585884
2.0760000000000014,6599.347605396589,4.618366902807122,4852441.480255567,291.3118556932181,3039.2678818693944,49.29679125901909,1.9707447105310465,0.003163767124420799
2.1160000000000014,6594.727767673689,4.646369543148115,4847768.29368069,291.2698094143563,3043.9741219858815,49.16036852500528,1.9731736180410584,0.0032197536218594443
2.1560000000000015,6591.445148414859,4.674757587782343,4843091.077188722,291.2276959372626,3047.9745301409844,49.02407980013897,1.9755968775352022,0.0032755678828153417
2.1960000000000015,6588.076309406192,4.703104604773014,4838409.533502635,291.1855124547774,3051.965625432686,48.88791698956456,1.9780146265316179,0.00333121377327696
2.2360000000000015,6584.83130399715,4.731449883944545,4833723.570451585,291.1432580015513,3055.9550284087013,48.751877747804265,1.980426888699794,0.0033866932542664595
2.2760000000000016,6581.656546074588,4.759929792178765,4829033.213312231,291.1009326695206,3059.961556343588,48.615963003262195,1.98283362335403,0.0034420072045185154
2.3160000000000016,6578.583497070687,4.788486161707328,4824338.441878996,291.0585361399216,3063.9772630993257,48.4801724297702,1.9852348148533387,0.0034971568955983016
2.3560000000000016,6575.5977921795275,4.817150450943765,4819639.259612596,291.01606830691435,3068.006452930434,48.344506363842214,1.9876304348136618,0.003552143369584108
2.3960000000000017,6572.707916326,4.845907924123826,4814935.657754985,290.9735289537072,3072.047114162672,48.20896481123125,1.990020461649642,0.0036069677612716312
2.4360000000000017,6569.91095203634,4.874767265980046,4810227.633416552,290.93091791590666,3076.100434860471,48.073547946640474,1.9924048707485755,0.0036616311368452554
2.4760000000000018,6567.209744984572,4.903725290069841,4805515.18044675,290.88823499899166,3080.1659818544836,47.93825586181919,1.9947836394057736,0.003716134575414042
2.516000000000002,6564.452495878872,4.932784825396994,4800798.294039244,290.8454800199581,3084.2209380609224,47.80308869228812,1.9971567443350482,0.0037704791284551534
2.556000000000002,6552.326185844422,4.9619659402538,4796076.968418166,290.80265278636483,3086.8475187267845,47.66804655366673,1.999524162907547,0.003824665840514421
2.596000000000002,6538.084183965081,4.992492872273162,4791351.178654231,290.75975293116585,3089.5752340720514,47.5331290458291,2.001885882777655,0.0038786959072525527
2.636000000000002,6524.900702399575,5.02168802098788,4786619.723491109,290.71676939560535,3092.185931197552,47.39830375247007,2.004242512990711,0.003932580683225996
2.676000000000002,6511.416000560148,5.051556862513809,4781883.052253962,290.67370609938433,3094.8540285036675,47.263583355384455,2.0065937852554665,0.00398631712430572
2.716000000000002,6498.154425991043,5.081319347516105,4777140.974109359,290.63056114731955,3097.5117262971175,47.128963087420445,2.0089397705120198,0.004039907729401595
2.756000000000002,6484.913195227814,5.111280392478563,4772393.546218143,290.58733489725864,3100.1855112030166,46.994444939281586,2.011280408816083,0.004093352839041907
2.796000000000002,6471.769135677061,5.141323103193186,4767640.72959228,290.54402683154825,3102.865229349014,46.8600282965661,2.0136156908865432,0.004146653608326622
2.836000000000002,6458.692061804824,5.171493914128086,4762882.521896662,290.5006367651936,3105.5524075895396,46.72571354632147,2.015945588275256,0.004199810864381807
2.876000000000002,6445.6912634607515,5.201777025174192,4758118.906413865,290.45716438119865,3108.2480923717408,46.59150069350183,2.0182700801055025,0.004252825544027532
2.916000000000002,6432.763529359587,5.232178562354234,4753349.870902456,290.4136094023583,3110.9528622901694,46.45738987136457,2.0205891432139933,0.004305698532857588
2.956000000000002,6429.5493194885885,5.262698033142277,4748575.40171987,290.36997153767135,3112.6022891798834,46.323381182578906,2.0229027552090684,0.004358430715497701
2.996000000000002,6426.8088639783555,5.2936442036907785,4743795.485434673,290.32625049703864,3114.186868970607,46.18947474266828,2.0252108936296933,0.004411022962128262
3.0360000000000023,6424.261455107605,5.324391474439862,4739009.8298386345,290.28244343647884,3115.7607529474653,46.05566322096079,2.027513678360077,0.00446347845144636
3.0760000000000023,6421.829092562872,5.355357900476111,4734218.498727374,290.2385507656813,3117.3447883833364,45.92194884902129,2.0298110462371746,0.004515797361931261
3.1160000000000023,6419.543568333313,5.386416259250273,4729421.450433472,290.1945719281934,3118.932690496158,45.78833104091477,2.0321029881386297,0.004567980741468966
3.1560000000000024,6417.398324342418,5.417610616183062,4724618.6781545635,290.1505066857005,3120.526629690215,45.654810150106705,2.0343894771583875,0.004620029335819736
3.1960000000000024,6415.399520245471,5.448927547041536,4719810.1630774,290.10635468866735,3122.1259402288115,45.52138621677859,2.0366704925092494,0.004671943978684832
3.2360000000000024,6413.549355660131,5.480372917709908,4714995.890053065,290.06211562000317,3123.7309077921473,45.388059385943095,2.0389460115516833,0.004723725461967827
3.2760000000000025,6411.851469250798,5.511946171342954,4710175.842384513,290.0177891472315,3125.3415011898333,45.25482976865182,2.0412160124291887,0.004775374578955946
3.3160000000000025,6408.749217256364,5.543648891040167,4705350.003550464,289.9733749382995,3126.7605258562844,45.1216974878039,2.0434804731938327,0.004826892110289274
3.3560000000000025,6400.327020509025,5.575593770737844,4700518.356639309,289.9288726563612,3127.5219292264246,44.98866266312368,2.0457393720865253,0.0048782788287428545
3.3960000000000026,6391.45255632771,5.607926759190506,4695680.787304603,289.88428106487294,3128.2868172348913,44.85572285957655,2.0479927355049803,0.004929536280318143
3.4360000000000026,6382.74628988571,5.640022529989805,4690836.982601805,289.83959709047696,3129.046016759645,44.722870456384044,2.050240686954589,0.004980667580770002
3.4760000000000026,6374.021856876823,5.672373148414337,4685987.021070677,289.794821265682,3129.807975683157,44.593779760425676,2.052581851454747,0.005031672672811531
3.5160000000000027,6366.5022827179455,5.690754535940103,4681130.855834214,289.7499529652438,3130.2054512622262,44.466999105949256,2.0549774660401243,0.0050825707898820745
3.5560000000000027,6359.641608036985,5.7015882136203615,4676269.534765205,289.7050016885941,3130.4063023887466,44.3403109287606,2.0573666868083778,0.00513336502654432
3.5960000000000027,6352.745291318103,5.712963122539446,4671403.621388852,289.65997248103736,3130.621079107997,44.21373008878544,2.05974920783963,0.0051840511783932805
3.636000000000003,6345.847868462247,5.724283059752412,4666533.0583618255,289.61486465136625,3130.8340465086617,44.08725576828936,2.0621250430000506,0.005234629990366829
3.676000000000003,6338.951918291355,5.735578966677691,4661657.823945652,289.5696778362183,3131.046081681568,43.96088805180801,2.0644941877587706,0.005285101918624864
3.716000000000003,6332.0557862810765,5.7468528699384205,4656777.897178797,289.5244116781796,3131.257218030495,43.83462704748223,2.066856637088619,0.005335467407976489
3.756000000000003,6325.159807942036,5.758103567275838,4651893.255977785,289.47906580817084,3131.4674285744572,43.708472839495606,2.069212386427324,0.005385726906867533
3.796000000000003,6318.2637685593845,5.769331469218869,4647003.878439823,289.4336398575058,3131.6767225330136,43.58242552077988,2.0715614310146617,0.005435880857149208
