time,thrust,OF,ox_tank.pressure,ox_tank.temperature,combustion_chamber.temperature,propellant_mass,propellant_CG,combustion_chamber.fuel_grain.geometry.length_regressed
0.007,254.57696236421728,3.875016787880826,4903441.810732398,291.7687277348866,2699.6107838678445,57.89125704857557,1.8502371935516875,1.693566069506342e-05
0.014,1267.8059104164417,3.634134529084189,4902250.055762016,291.75809320949816,2713.590126625279,57.851159980052635,1.8510019251495116,3.377851084848492e-05
0.021,2577.774294028474,3.5869858171610542,4901139.171961482,291.7481785533261,2713.6746401639193,57.813677545797105,1.851711345506378,4.972620274723814e-05
0.028,3614.017293493642,3.552056921279639,4900101.609217657,291.7389167388967,2707.9221939371973,57.7785704361074,1.8523708179024656,6.485016953544902e-05
0.035,4410.65103964677,3.5270929604780763,4899127.784877554,291.7302225236409,2702.264517271992,57.745532920607346,1.8529870198186913,7.92471557457036e-05
0.042,5022.495259188776,3.5109354537796227,4898207.791959951,291.7220076982529,2698.389050085422,57.714247508361524,1.853566781963302,9.302106624975524e-05
0.049,5486.144183000048,3.501980557431517,4897332.105017232,291.7141873966208,2696.5345596466946,57.684407765926565,1.8541166182955646,0.00010627487815574054
0.056,5834.6373314855555,3.4984228941583186,4896492.052396565,291.706684323105,2696.374941924239,57.65573381513022,1.8546424197530684,0.00011910467559543484
0.063,6094.790084476517,3.4985721564314556,4895680.089590094,291.69943120452206,2697.4208283790667,57.627981495725706,1.8551492840522688,0.0001315957298380522
0.07,6289.024559937421,3.5010534399643896,4894889.896174359,291.69237166621735,2699.212010438117,57.600945815021326,1.8556414632340337,0.00014382061098980754
0.07700000000000001,6437.557768454781,3.5048703772608003,4894116.339250295,291.68545991452874,2701.3999840207566,57.574460012066524,1.856122398333867,0.00015583898126645483
0.08400000000000002,6543.033934615607,3.5093616354805524,4893355.353402584,291.6786596719639,2703.7494136723003,57.5483918373542,1.8565948070968572,0.00016769853972575173
0.09100000000000003,6620.523851124506,3.5141541273939825,4892603.783257875,291.6719427766361,2706.134631802926,57.52263854950317,1.857060794156341,0.00017943656906093557
0.09800000000000003,6677.286688703017,3.519028263598637,4891859.213228666,291.6652876657152,2708.4862121356523,57.49712144412453,1.8575219677738677,0.00019108175942495286
0.10500000000000004,6718.752040242819,3.5238767735096905,4891119.816109556,291.6586780260748,2710.776457524772,57.47178096207204,1.8579795426702632,0.00020265589473997015
0.11200000000000004,6748.958277192321,3.5286556676149474,4890384.2221075995,291.65210162653585,2712.996381473747,57.446572442483706,1.858434428358667,0.00021417535005456716
0.11900000000000005,6770.892406563249,3.533354897484217,4889651.411251894,291.64554935826055,2715.1539352451173,57.421462625802214,1.8588873013678022,0.00022565234232763373
0.12600000000000006,6786.758110796343,3.5379796392229377,4888920.6277567735,291.63901447076057,2717.258690584829,57.396426866113444,1.85933866253377,0.0002370959371460567
0.13300000000000006,6798.176899625485,3.5425410198506153,4888191.313638415,291.63249197955105,2719.320743865032,57.371446968092634,1.8597888813019605,0.00024851283497234153
0.14000000000000007,6806.339713805087,3.5470513159708257,4887463.058057718,291.62597821405205,2721.3493623239287,57.34650953535801,1.8602382294706523,0.0002599079741818957
0.14700000000000008,6812.1200863686745,3.551521813929144,4886735.559121952,291.6194704766273,2723.3523776800057,57.32160472458659,1.8606869065987024,0.00027128498733362035
0.15400000000000008,6816.158101751799,3.5559620425389014,4886008.595324574,291.612966787617,2725.3361026522007,57.29672531382349,1.86113505898045,0.0002826465430709129
0.1610000000000001,6818.9224392103115,3.56037966955798,4885282.004321971,291.6064656958441,2727.3054768594084,57.27186601010601,1.8615827937327625,0.0002939946005383127
0.1680000000000001,6820.756085609018,3.5647806842896896,4884555.667232672,291.5999661384111,2729.2642905937955,57.247022937273854,1.862030189208244,0.00030533059774127773
0.1750000000000001,6821.909942618981,3.569169674804965,4883829.497059763,291.5934673373018,2731.215413760032,57.22219325833028,1.8624773026685686,0.00031665559048635355
0.1820000000000001,6822.567494468169,3.5735501097915985,4883103.430173937,291.5869687233088,2733.160999367576,57.1973748976825,1.8629241759258757,0.0003279703545924387
0.22200000000000011,6822.862892743976,3.577924587925118,4882377.4200589685,291.5804698801621,2735.102652147351,57.17256633720672,1.8633708394833255,0.0003392754609348556
0.2620000000000001,6814.998011304158,3.5851121908402037,4878222.85629399,291.5432663216931,2738.2626789473857,57.03087831625325,1.8659208783695798,0.00040376815451858883
0.3020000000000001,6807.030454013206,3.6111784315377276,4874064.733826893,291.50600668383356,2749.7949013117973,56.889334809414386,1.8684675850110615,0.00046801145565762356
0.3420000000000001,6805.606439743383,3.633439172528101,4869902.071693036,291.46868207290925,2759.6622090819883,56.7479036197408,1.8710115573499597,0.0005320194237939792
0.38200000000000006,6799.776530395773,3.6605056472013087,4865738.568797203,291.43132557520266,2771.6424953575515,56.60670330870365,1.8735503494203007,0.0005957514325857333
0.42200000000000004,6797.810852540746,3.6838820483473116,4861571.594215339,291.39391351416975,2782.000295125587,56.46564840531948,1.876085638392956,0.0006592408748027344
0.462,6792.7921051591165,3.7104428619482523,4857403.403009945,291.3564660618699,2793.756312436565,56.324810652995254,1.8786159285753972,0.0007224642251082079
0.502,6789.892901773651,3.734442196835159,4853232.167923584,291.31896673116466,2803.5427845657987,56.18413069392515,1.8811423704244723,0.0007854452128890358
0.542,6783.355181879683,3.7610363473944246,4849059.435373048,291.2814293507649,2813.1101740342983,56.04365736138254,1.8836639339626386,0.0008481686079744827
0.5820000000000001,6778.070917639572,3.7859142957510423,4844883.544244455,291.2438389027055,2822.0620619884985,55.903336884882314,1.8861816572357384,0.0009106559172316496
0.6220000000000001,6771.781488236544,3.8118674387665172,4840705.198586064,291.206201641176,2831.395464288237,55.763191172547124,1.8886950547091934,0.0009729014899749764
0.6620000000000001,6766.352108716712,3.837042267462465,4836523.811962952,291.168512201038,2840.450335261359,55.62320098595869,1.8912044696897254,0.0010349143146876206
0.7020000000000002,6760.353177854439,3.862918966432793,4832339.855832643,291.130774747847,2849.7538319519704,55.483380796930135,1.8937095684766045,0.0010966913507460662
0.7420000000000002,6754.8912292340165,3.888348692490619,4828152.98846382,291.0929861162488,2858.8970062288813,55.34371923761461,1.8962105374780085,0.0011582386910851952
0.7820000000000003,6749.1074864140455,3.9142298008767633,4823963.498857411,291.0551488308149,2868.199548894761,55.204224975421965,1.8987071616278088,0.0012195553061640325
0.8220000000000003,6743.666974076679,3.939861370857706,4819771.185786105,291.01726099088256,2877.4114865219867,55.06489115881559,1.9011995380781936,0.0012806456098329476
0.8620000000000003,6738.051529740385,3.965793084583446,4815576.228536247,290.979324133011,2886.728654606999,54.92572298750249,1.9036875231483417,0.001341509743003244
0.9020000000000004,6732.662764879721,3.991595302434008,4811378.509551202,290.94133711064813,2895.9986332055555,54.78671630124474,1.9061711614672339,0.00140215110043244
0.9420000000000004,6727.186585524529,4.017606164717851,4807178.142096483,290.90330086505526,2905.341539856288,54.64787423035676,1.9086503524720577,0.00146257049436925
0.9820000000000004,6720.547639335238,4.043561219583894,4802975.05880584,290.865214702629,2913.300432613707,54.50919423371566,1.9111251097940851,0.0015227706872295824
1.0220000000000005,6712.2221911039205,4.070187693459794,4798769.332922642,290.82707920328914,2920.7583212843247,54.370678201039254,1.913595359228331,0.0015827528694103655
1.0620000000000005,6704.160000975574,4.096346184836697,4794560.390354771,290.78888907286654,2928.0836753335843,54.23230779495648,1.9160614306230508,0.0016425251938469601
1.1020000000000005,6695.944615996916,4.122757079973074,4790348.34803343,290.7506452793348,2935.477041938558,54.094086369780506,1.9185232212449737,0.001702088250050744
1.1420000000000006,6687.921552484795,4.149079046213979,4786133.106070106,290.71234682259205,2942.8444055965756,53.956010517336736,1.9209807638199747,0.0017614449361844046
1.1820000000000006,6679.84134684855,4.1755822389670225,4781914.750167859,290.6739943877353,2950.2603036897217,53.818082633896154,1.923433976071626,0.0018205961237025897
1.2220000000000006,6671.885468410577,4.202070719609042,4777693.23239205,290.6355874454236,2957.670732436033,53.680300963642594,1.9258828589975068,0.0018795440864005737
1.2620000000000007,6663.920196409031,4.228690004274585,4773468.602383571,290.59712635347387,2965.115798710409,53.54266679705287,1.928327353620784,0.0019382900286572344
1.3020000000000007,6656.042165152975,4.255334097658244,4769240.837910187,290.5586108156253,2972.5663193932905,53.405179203935226,1.9307674456871207,0.001996835890379638
1.3420000000000007,6648.179612709948,4.282082197283343,4765009.968919999,290.520041010623,2980.0441066485205,53.267838882424385,1.9332030891979868,0.002055183032162522
1.3820000000000008,6640.383959679374,4.308877082281548,4760775.9866910335,290.48141676476416,2987.533424768776,53.130645344558886,1.9356342622501561,0.0021133331952010634
1.4220000000000008,6633.0740527045455,4.335762055799611,4756538.910405783,290.44273815864517,2994.497951884555,52.993598974790274,1.938060926208321,0.0021712878017642774
1.4620000000000009,6626.624951645811,4.362931179631999,4752298.738364811,290.4040050822182,3000.0944217061865,52.85669952367549,1.9404830555306358,0.0022290484666448993
1.502000000000001,6619.44524667226,4.3904650959861105,4748055.264640522,290.36521555761135,3005.758686930411,52.71994049018587,1.9429007485693857,0.0022866188828850535
1.542000000000001,6612.738058835123,4.417466601409727,4743808.053277504,290.32636549670565,3011.313817496561,52.58330838483092,1.9453142414913143,0.002344005044218
1.582000000000001,6605.770140806756,4.444931846194807,4739557.36378948,290.28745716828155,3016.960881657838,52.446811075958976,1.9477233492201194,0.0024012057372528716
1.622000000000001,6599.04234665732,4.472212256650825,4735303.024221563,290.24848889379126,3022.569272205955,52.310443223294854,1.9501281476834067,0.002458224161234103
1.662000000000001,6592.2159663908515,4.499752581983162,4731045.157432603,290.20946169320024,3028.2280380058237,52.17420851248878,1.952528535421152,0.0025150604742792187
1.702000000000001,6585.518641405203,4.527251775110857,4726783.686598593,290.1703747570493,3033.876003920173,52.038104541602685,1.9549245312679477,0.0025717168488063715
1.742000000000001,6578.795774553134,4.554915689967158,4722518.669469923,290.1312285092081,3039.5556211637095,51.90213301950436,1.957316073663233,0.00262819406882222
1.7820000000000011,6572.151118284487,4.5826053665813395,4718250.072333117,290.0920225342867,3045.2389922875996,51.76629288080081,1.9597031559863705,0.00268449382239771
1.8220000000000012,6565.51402440753,4.610416439891107,4713977.923075181,290.0527569820597,3050.9453176131565,51.63058493993047,1.9620857351509242,0.0027406171562113332
1.8620000000000012,6560.072324039816,4.638285233375221,4709702.20765734,290.01343161691204,3056.1556579927774,51.49500874842088,1.9644637932486098,0.002796565517343165
1.9020000000000012,6557.300428954248,4.66642138301639,4705422.939963006,289.97404645959364,3060.1390155314384,51.35956471140521,1.966837296061933,0.0028523400538352293
1.9420000000000013,6554.149620621484,4.694826096653104,4701139.962685747,289.93459995363526,3064.1544227260706,51.22424808737719,1.9692063102371333,0.002907943584214581
1.9820000000000013,6551.289328511814,4.722907198696256,4696852.989914897,289.8950893525159,3068.1240371045096,51.08905031170417,1.9715709769326708,0.0029633801462741623
2.022000000000001,6548.384780980735,4.751322006091039,4692562.180483149,289.85551600524064,3072.1381507836945,50.953976226940284,1.9739311758826965,0.0030186493631015623
2.062000000000001,6545.651944810663,4.779671309243035,4688267.433418351,289.8158788658556,3076.1420982895493,50.819022871509404,1.9762869393855786,0.00307375339629569
2.102000000000001,6542.957268135325,4.808210186002052,4683968.812529471,289.776178407811,3080.1708016278303,50.68419223810848,1.9786382035779142,0.003128692774381722
2.1420000000000012,6540.385467471633,4.836778593891037,4679666.277597664,289.7364141440342,3084.2023679219087,50.549483209760496,1.9809849654585963,0.003183469024175569
2.1820000000000013,6537.885086021955,4.865478823407337,4675359.853478847,289.6965861880726,3088.2507866302017,50.41489662381457,1.9833271843772757,0.003238083022410413
2.2220000000000013,6535.489570309275,4.894247608174731,4671049.523845859,289.6566942724344,3092.3074147287753,50.28043209519875,1.9856648437514117,0.0032925360279860787
2.2620000000000013,6533.179617953097,4.923126011651031,4666735.297861832,289.61673836496254,3096.377863256348,50.14609000614033,1.9879979124420433,0.0033468290372582316
2.3020000000000014,6524.492179084686,4.9520894576265855,4662417.168414941,289.57671828244605,3099.461454014832,50.01187026175371,1.9903263688710304,0.0034009631868080993
2.3420000000000014,6511.259912893699,4.98214277294427,4658095.13825021,289.53663393253197,3102.1648239039077,49.87777306715251,1.9926501859661516,0.0034549395028668855
2.3820000000000014,6498.281546801325,5.011502984057937,4653768.343683839,289.4964771784214,3104.80250834634,49.74377304567344,1.9949698299781926,0.003508767184231956
2.4220000000000015,6485.337333785379,5.041025914426219,4649436.817019452,289.4562481846955,3107.453152556853,49.60987141951285,1.9972852531258378,0.003562446854530138
2.4620000000000015,6472.491426339379,5.070624210043633,4645100.5310924295,289.41594656339146,3110.106970763972,49.47606766047015,1.9995964416494174,0.0036159796860340547
2.5020000000000016,6459.709004030386,5.100345300222481,4640759.489524037,289.37557221176513,3112.7703446376227,49.342362156636234,2.001903364395964,0.0036693665460540304
2.5420000000000016,6447.007697130289,5.130165113839611,4636413.67934506,289.33512487220156,3115.4412002605204,49.2087548149517,2.0042059997210577,0.0037226084436249515
2.5820000000000016,6434.377588728896,5.160097730567052,4632063.096222929,289.2946043667085,3118.1207513596623,49.07524580389614,2.0065043211999374,0.0037757062929342547
2.6220000000000017,6421.822676055441,5.190137359784526,4627707.731122037,289.25401047282236,3120.808496262721,48.94183516131129,2.00879830515544,0.0038286610383079104
2.6620000000000017,6409.340007833866,5.220288264317437,4623347.5770273255,289.21334298618245,3123.5048005924955,48.80852299164687,2.0110879268677744,0.0038814735917704836
2.7020000000000017,6402.420133070026,5.250549650256354,4618982.625570578,289.1726016890935,3125.59895586782,48.67530936708438,2.01337316246374,0.00393414486456624
2.7420000000000018,6400.154051701155,5.281121407217893,4614612.868721041,289.1317863662737,3127.175878027312,48.54219437692687,2.01565398796593,0.003986675751724992
2.782000000000002,6397.895056361034,5.311734060317279,4610238.133459952,289.0908952589931,3128.75243275351,48.40917332967824,2.017930470619762,0.004039068636250086
2.822000000000002,6395.79988299015,5.342364884294874,4605858.346462616,289.04992753620303,3130.32936828804,48.276244462691764,2.0202026217359093,0.004091324962419887
2.862000000000002,6393.826321304246,5.373159725109611,4601473.529745497,289.0088832571009,3131.9137546935826,48.143408790652906,2.022470399914746,0.004143445292630327
2.902000000000002,6391.996888842029,5.4040502777340755,4597083.65857594,288.9677620428538,3133.502263133111,48.010665979454224,2.024733789619338,0.004195430601931775
2.942000000000002,6390.305690094124,5.4350693290178995,4592688.72932467,288.92656371129954,3135.0964884190957,47.878016313248324,2.02699276375492,0.0042472816622789
2.982000000000002,6388.759658473485,5.46620330201548,4588288.728412627,288.88528798624566,3136.6957672184813,47.745459795747635,2.0292473007363614,0.004298999323528646
3.022000000000002,6387.360203661296,5.497459779245493,4583883.646438228,288.84393462979693,3138.300466500476,47.61299655831482,2.031497376741095,0.004350584386320671
3.062000000000002,6386.111346688127,5.528836746074485,4579473.471782633,288.8025033823958,3139.910485896396,47.48062667552643,2.0337429691989795,0.0044020376596386294
3.102000000000002,6379.875851918527,5.5603365351218015,4575058.193492896,288.7609939898571,3140.8740408302806,47.34835024814523,2.0359840552176798,0.004453359935182918
3.142000000000002,6371.528841307501,5.592376765808,4570637.799989955,288.71940619122614,3141.6376101634955,47.216167365970406,2.038220612280168,0.004504551999035296
3.182000000000002,6363.2574176900725,5.624174718476936,4566211.948708829,288.6777366072621,3142.3944416693794,47.08406869006353,2.0404527951296303,0.004555617526785909
3.222000000000002,6354.9899488412475,5.656155665450407,4561780.667570246,288.63598534065096,3143.155194504339,46.95205549897188,2.0426805585389416,0.004606556905514662
3.2620000000000022,6346.748575704161,5.688250071939844,4557343.9312493205,288.59415199199594,3143.91826486563,46.82012755750483,2.04490388590385,0.0046573709802644764
3.3020000000000023,6338.524814686154,5.7204807678594545,4552901.729355891,288.5522363015431,3144.68415598168,46.68828506349851,2.0471227526290288,0.004708060454696022
3.3420000000000023,6330.32150541034,5.752840820929991,4548454.045762221,288.5102379544177,3145.452713093176,46.556528058834445,2.0493371371813875,0.004758626072161701
3.3820000000000023,6322.137244925625,5.785334326341706,4544000.866153203,288.4681566517925,3146.224023946937,46.42485664414774,2.051547017060868,0.004809068549998449
3.4220000000000024,6313.972220677614,5.8179612365167,4539542.175192906,288.42599208413986,3146.9980851403197,46.29327089839247,2.0537523703021834,0.004859388604266269
3.4620000000000024,6302.4726321780345,5.850723071359874,4535077.957586246,288.38374394124025,3147.536178836391,46.16177090892414,2.0559531749084665,0.004909586940679578
3.5020000000000024,6285.1935671221245,5.883758917508665,4530608.19768389,288.3414119084347,3147.678335074775,46.03035676032532,2.0581494090559436,0.004959664258132239
3.5420000000000025,6267.659940153729,5.917000866576011,4526132.7743120305,288.2989946694497,3147.8186456466938,45.90018490287673,2.0603711837486123,0.005009622140407305
3.5820000000000025,6251.793692717787,5.94568470434694,4521651.539407919,288.2564906487814,3147.9289976939617,45.77493621504568,2.0627143032992454,0.00505946782369493
3.6220000000000026,6242.2181751059525,5.956018994127602,4517164.852740754,288.21390308817416,3147.9160731725665,45.6497534526012,2.0650523696832783,0.005109221413601477
3.6620000000000026,6232.30960144164,5.967675653613358,4512674.011644233,288.1712441482804,3147.9137395786793,45.524672210170436,2.067384658285113,0.0051588722059825575
3.7020000000000026,6222.318715508447,5.979346188041755,4508178.986639963,288.12851340843264,3147.9105096409785,45.39969223362931,2.0697111695234267,0.005208420733860566
3.7420000000000027,6212.356286880575,5.9909359331248035,4503679.723395625,288.085710210069,3147.906798517785,45.27481260912725,2.0720319170129047,0.005257867731577467
3.7820000000000027,6202.37080036404,6.002525525057513,4499176.220039604,288.0428343921885,3147.9028053281127,45.150033836826026,2.074346885923309,0.005307213488356854
3.8220000000000027,6192.6638892386045,6.014085238860554,4494668.4539818885,287.99988559573137,3147.896755913297,45.02535586479808,2.076656072522293,0.005356458462107487
3.8620000000000028,6183.086918946655,6.025625084305307,4490156.409208117,287.9568635231743,3147.8897475233593,44.900778821341945,2.0789594694657465,0.005405603051097638
