time,thrust,OF,ox_tank.pressure,ox_tank.temperature,combustion_chamber.temperature,propellant_mass,propellant_CG,combustion_chamber.fuel_grain.geometry.length_regressed
0.007,237.67741653862615,5.029531175290135,4121920.5288508576,284.3308221811707,2890.4917504522614,59.062274816801505,1.8173166613358156,1.1510671582620485e-05
0.014,959.5655119488505,4.704260187979726,4121120.128008188,284.32268125227796,3008.244225841304,59.02888030726817,1.8179738961630738,2.2963238960332706e-05
0.021,2089.392913539932,4.6164592482382485,4120375.512913963,284.3151066645984,3039.777575248244,58.99773219990268,1.8185828141059819,3.381822730308894e-05
0.028,2990.2404780352376,4.550048277421468,4119683.160431157,284.30806280137347,3049.0302756105034,58.96869202003579,1.8191466254936512,4.410334852245125e-05
0.035,3680.7557445668403,4.499410091835954,4119036.804200015,284.30148609815797,3051.9862039449913,58.94151066004697,1.8196708610233516,5.3877649095845974e-05
0.042,4215.327887250701,4.4628570745899765,4118429.575350271,284.29530681631456,3052.878791312091,58.91591379911109,1.820161520727726,6.320968004979001e-05
0.049,4621.600016810992,4.438437062099398,4117854.7026986466,284.2894561712245,3053.3733178733287,58.891630002709284,1.8206244755415952,7.216990018842206e-05
0.056,4942.455606616822,4.423674211114621,4117305.909361992,284.28387037433197,3054.0674552257137,58.86840684218422,1.8210651354196505,8.082584732463644e-05
0.063,5173.155254938156,4.4157145236612845,4116777.6576973656,284.27849313259463,3055.0092988038396,58.84602101680977,1.8214882499969294,8.923872977992109e-05
0.07,5342.80052957337,4.412421339560512,4116265.296004719,284.2732771481703,3056.149660237165,58.8242845421866,1.8218977936112901,9.74610579048621e-05
0.07700000000000001,5467.792830627158,4.4120925743761,4115765.037910829,284.2681839144158,3057.376364307913,58.80304414029963,1.8222969911636486,0.00010553628463398745
0.08400000000000002,5559.475629199546,4.413549725466035,4115273.885561982,284.26318293887965,3058.607957939128,58.782178294429656,1.8226883895989252,0.00011349925127343304
0.09100000000000003,5617.138298369197,4.416033752727989,4114789.5161351436,284.2582505918331,3059.782865490804,58.76159275899909,1.8230739584587499,0.00012137721221776012
0.09800000000000003,5658.778306959068,4.419079652811852,4114310.1594814546,284.25336886355734,3060.8928747213467,58.74121566336806,1.8234551963098025,0.00012919108445831793
0.10500000000000004,5689.29594182731,4.422425762534934,4113834.4839284075,284.2485242038811,3061.9334569900548,58.72099291477358,1.823833229101861,0.00013695668521979367
0.11200000000000004,5714.047282657722,4.425924103518468,4113361.49660294,284.2437065089107,3062.9042337077217,58.70088417096751,1.8242088954717939,0.0001446858515961074
0.11900000000000005,5732.687489396226,4.429496816422029,4112890.46233869,284.2389082964874,3063.8199091984075,58.680859556155944,1.8245828158617723,0.0001523873715953998
0.12600000000000006,5746.173078100485,4.433101082418538,4112420.839393251,284.2341240524427,3064.6920086634555,58.66089705369785,1.8249554471479625,0.00016006773324287317
0.13300000000000006,5755.904270997755,4.4367162142977605,4111952.230199446,284.22934972967505,3065.529774051839,58.640980506549184,1.8253271244068503,0.0001677317042238413
0.14000000000000007,5762.903677761853,4.440333043193475,4111484.3438476166,284.2245823664947,3066.3411964442917,58.621098093005074,1.825698092681412,0.00017538277654841004
0.14700000000000008,5767.916855541635,4.443947868050285,4111016.967897535,284.2198197998408,3067.132733145881,58.60124118102536,1.8260685308186084,0.00018302350223498
0.15400000000000008,5771.4867282964515,4.447559611482069,4110549.9474378023,284.215060452211,3067.909432912133,58.581403476935044,1.826438569161201,0.00019065574349129308
0.1610000000000001,5774.008324478844,4.451168358018617,4110083.169626119,284.21030317434247,3068.6751581030567,58.561580396878114,1.8268083025990773,0.00019828085781225957
0.1680000000000001,5775.768890456776,4.454774632454767,4109616.5523274336,284.2055471295828,3069.432820117854,58.54176860487459,1.8271778001551044,0.00020589983420329203
0.1750000000000001,5776.977208839935,4.458379062209387,4109150.035790885,284.2007917091779,3070.184591195256,58.52196567444735,1.8275471120034692,0.00021351339305339677
0.1820000000000001,5777.784985935175,4.4619822332249095,4108683.5765670985,284.1960364703573,3070.932080490598,58.502169841356405,1.8279162745965065,0.00022112205915732994
0.22200000000000011,5778.302432316374,4.465584639679509,4108217.143070306,284.1912810911573,3071.676474008726,58.48237982322114,1.8282853144036542,0.00022872621500039732
0.2620000000000001,5773.374394852635,4.472440237812529,4105548.2394764796,284.16406335879117,3073.0328594019834,58.36933494151296,1.8303931123790507,0.0002721247081074103
0.3020000000000001,5771.335530514595,4.492847858457947,4102876.887713983,284.136807442375,3077.197200561235,58.25634707217364,1.8324996373207096,0.0003154155884143709
0.3420000000000001,5770.234174241404,4.512883044040435,4100203.347221035,284.10951594030047,3081.2930762128863,58.143426661602625,1.8346046563076395,0.0003585965157582649
0.38200000000000006,5768.806427640674,4.533901682318139,4097528.0465988787,284.08219318405776,3085.5853342322844,58.0305909066142,1.8367077973596941,0.0004016631945644106
0.42200000000000004,5767.742609161973,4.554320113278105,4094850.732863499,284.0548365474556,3089.7566604137505,57.91782955004652,1.838809256307647,0.00044461936468671056
0.462,5766.548198598671,4.575213697617463,4092171.592336049,284.0274478912346,3094.0220786424616,57.805150009037874,1.8409088638998985,0.0004874635908344744
0.502,5765.568132552671,4.595818807784525,4089490.4985099686,284.00002587938747,3098.228934758508,57.69254713805529,1.8430067106460017,0.000530198094364707
0.542,5764.563517363458,4.6166754669251,4086807.54487605,283.97257142503526,3102.4851446223156,57.580024621303835,1.8451027048735444,0.0005728225173426624
0.5820000000000001,5762.641831356537,4.637402515398452,4084122.6698675635,283.9450838552058,3106.2606500290804,57.4675799344718,1.847196883298158,0.000615338297802601
0.6220000000000001,5758.357034883723,4.658502632513591,4081435.920883809,283.9175636119901,3109.2129782160405,57.355214916979754,1.8492891927496513,0.0006577456001025179
0.6620000000000001,5753.723450442724,4.679697910357619,4078747.1337830275,283.89000896992144,3112.1739225540937,57.24292297574449,1.8513797541613257,0.0007000470144530966
0.7020000000000002,5749.2597643486015,4.700568450683374,4076056.151785685,283.8624182756172,3115.089742522574,57.13069784941371,1.8534686816263402,0.0007422450130234633
0.7420000000000002,5744.668547481214,4.721684769951591,4073363.0654942947,283.8347924106952,3118.0381212293682,57.01854314206141,1.8555558859610441,0.0007843392147778351
0.7820000000000003,5740.14129785628,4.742695511101991,4070667.8188361158,283.80713075276276,3120.971341801812,56.906456623002995,1.857641398433687,0.0008263309108191575
0.8220000000000003,5735.535127650427,4.763826501589881,4067970.449675598,283.7794336429708,3123.9197648599084,56.79443979939235,1.8597251734519338,0.0008682203112546872
0.8620000000000003,5730.8828361367305,4.784924100833698,4065270.9359309883,283.7517008071178,3126.8615565395053,56.682491802063325,1.861807214541285,0.0009100083005031895
0.9020000000000004,5726.282565298797,4.806049269240957,4062569.2990658684,283.7239324181135,3129.8067084981553,56.57061349108418,1.863887489782838,0.0009516952614373686
0.9420000000000004,5721.694468518209,4.827231354900968,4059865.5578706884,283.69612862168384,3132.7589134836503,56.45880562018787,1.8659659696282735,0.0009932816020592357
0.9820000000000004,5717.141151365624,4.848427251237336,4057159.7127290205,283.6682893743862,3135.7123318036643,56.34706821729893,1.8680426396299454,0.0010347679310980407
1.0220000000000005,5712.607358584218,4.869664262449015,4054451.7748738676,283.64041474436954,3138.6706593049475,56.23540174087464,1.8701174766460285,0.0010761547286114248
1.0620000000000005,5708.102589863044,4.890924817790571,4051741.748269403,283.61250472500944,3141.6315262293233,56.12380636479702,1.8721904635458366,0.0011174425494166155
1.1020000000000005,5703.620210622847,4.91222075973908,4049029.6414522193,283.5845593567639,3144.5965367097792,56.01228244506985,1.8742615796125277,0.0011586318907162204
1.1420000000000006,5699.027820760568,4.933544633146997,4046315.4598040837,283.55657864761025,3147.503053685666,55.90083021562884,1.8763308067923166,0.0011997232783609623
1.1820000000000006,5692.292335605606,4.954947463539448,4043599.210613742,283.5285626251859,3149.400953317831,55.78944998729519,1.878398125605078,0.0012407172106734298
1.2220000000000006,5684.936523942719,4.977095892586246,4040880.874595056,283.50051104284836,3151.3549496653063,55.67814103358753,1.880463537997422,0.0012816144715000002
1.2620000000000007,5678.397597716663,4.998342058250151,4038160.048299505,283.47241968612536,3153.231555125291,55.566887634633915,1.8825273534183835,0.0013224200382541227
1.3020000000000007,5671.833155686407,5.020171123510347,4035436.9503726102,283.4442907597359,3155.1568203558077,55.455698416869716,1.8845893819893247,0.0013631320406943478
1.3420000000000007,5665.704714761445,5.041730114331435,4032711.443416563,283.4161227921802,3157.0583869598454,55.34456809864356,1.886649719151485,0.0014037525034020807
1.3820000000000008,5659.75485890914,5.063508877832965,4029983.5940760593,283.3879164193186,3158.977798702058,55.23349936546124,1.8887082971573097,0.0014442812141509747
1.4220000000000008,5654.120840483831,5.085229158059986,4027253.352676139,283.3596710745825,3160.891452968757,55.12249037417111,1.890765141163228,0.0014847192203705202
1.4620000000000009,5648.726673784429,5.107048684303751,4024520.7350514685,283.33138686845444,3162.812721195889,55.011541835834,1.892820224128216,0.001525066850946434
1.502000000000001,5643.612033171762,5.128879623131792,4021785.7201352958,283.30306352936026,3164.734151520193,54.90065303173495,1.894873548392799,0.0015653248270909696
1.542000000000001,5638.7559346125445,5.150771379963592,4019048.307192622,283.27470099584815,3166.6599285106468,54.78982403688511,1.8969251001649745,0.0016054936435814242
1.582000000000001,5634.170381101323,5.17269726478732,4016308.4840836427,283.24629908804593,3168.58778502358,54.679054488679604,1.898974874710951,0.0016455739109514356
1.622000000000001,5629.851125240152,5.194672450238258,4013566.244722373,283.21785768847957,3170.5190027936765,54.5683442633526,1.901022862518947,0.0016855661679594078
1.662000000000001,5625.803322160773,5.216689265854297,4010821.579547689,283.1893766433252,3172.4529270373832,54.457693107240104,1.9030690568347268,0.0017254709837600983
1.702000000000001,5622.375582414927,5.238752408894581,4008074.4806813174,283.16085581588095,3174.22481445672,54.347100836095905,1.905113449586969,0.0017652889028949663
1.742000000000001,5620.25314499154,5.260925618960767,4005324.9391571926,283.1322950578224,3175.339414366838,54.23656722815649,1.9071560335691986,0.0018050204748743218
1.7820000000000011,5617.706072168915,5.283315670697023,4002572.9119775677,283.10369386670646,3176.461361525408,54.12609076029314,1.9091968281971912,0.0018446666003212543
1.8220000000000012,5614.967622051327,5.305461411916159,3999818.2759420197,283.07505090485046,3177.5713595841617,54.01566684757321,1.9112359153101497,0.0018842290093461543
1.8620000000000012,5611.923361266006,5.327794253998184,3997061.0902997185,283.0463667303704,3178.6898841188886,53.905297915002464,1.9132732339211138,0.0019237075053419991
1.9020000000000012,5608.623713687647,5.350101611067376,3994301.323095643,283.01764095291543,3179.8068191342286,53.79498289236507,1.9153087943755345,0.0019631028440532513
1.9420000000000013,5604.175131273722,5.372486435836821,3991538.9861932355,282.988873637734,3180.9252940437113,53.68472239078548,1.9173425728674474,0.0020024153172935022
1.9820000000000013,5599.488340760148,5.394901216744108,3988774.070337169,282.96006463005926,3182.04433336429,53.57451621646656,1.9193745620760092,0.002041645432115954
2.022000000000001,5594.811498503353,5.417366595637642,3986006.5754673923,282.9312138706429,3183.1653897248057,53.46436452987858,1.9214047475649432,0.0020807935947342337
2.062000000000001,5590.148169225053,5.439873777123956,3983236.4977574423,282.90232126077285,3184.288049437227,53.35426735069582,1.9234331178552098,0.0021198602453944134
2.102000000000001,5585.496522891908,5.4624276499076805,3980463.8352584364,282.87338672108467,3185.412543465418,53.24422477296462,1.9254596600478004,0.002158845799967829
2.1420000000000012,5580.8572656683145,5.485026306117561,3977688.5850200825,282.8444101615441,3186.5387806753997,53.134236855459264,1.9274843620510405,0.0021977506797564534
2.1820000000000013,5576.229915798498,5.507671059460441,3974910.7444546963,282.8153914956718,3187.6668225991534,53.024303673543606,1.929507211525466,0.0022365752975007556
2.2220000000000013,5571.614549551561,5.530361705780464,3972130.310695994,282.78633063384865,3188.7966588128925,52.914425294807174,1.931528196377144,0.0022753200640231986
2.2620000000000013,5566.678493458403,5.55309875469292,3969347.2809002814,282.7572274864577,3189.478097310116,52.804601790477975,1.9335473045246374,0.00231398538520084
2.3020000000000014,5561.331863296585,5.576177192390732,3966561.6521061743,282.7280819624157,3190.0019448485273,52.694833230100926,1.935564524005583,0.002352571663452691
2.3420000000000014,5556.020161111689,5.599057097609476,3963773.273611446,282.6988924234037,3190.5205412587,52.58511412414317,1.9375799554502622,0.0023910807850396356
2.3820000000000014,5550.711075364516,5.622017020629045,3960982.157610325,282.6696589342082,3191.0407074559175,52.47544514030453,1.9395935747814785,0.0024295129776769693
2.4220000000000015,5545.414495271016,5.645017229013964,3958188.296341827,282.64038135052766,3191.5615526773436,52.365826196667484,1.9416053731812164,0.0024678686664019677
2.4620000000000015,5540.126441627498,5.668070077555549,3955391.6873722207,282.61105958357405,3192.0833384726493,52.25625741468788,1.9436153377925138,0.0025061482181936126
2.5020000000000016,5534.848354955004,5.691171213358199,3952592.326154919,282.5816935221488,3192.605972365154,52.146738839242246,1.9456234573829514,0.0025443520168977863
2.5420000000000016,5529.57950780999,5.7143228003236,3949790.208880068,282.55228306250007,3193.1294988829914,52.037270545688656,1.9476297201783117,0.002582480434687342
2.5820000000000016,5524.320041851042,5.737524387569521,3946985.3313355115,282.52282809637734,3193.6539076027775,51.92785259712193,1.9496341147252971,0.0026205338435029897
2.6220000000000017,5519.069754279287,5.760776574910613,3944177.689363489,282.4933285158188,3194.1792101814244,51.81848506148407,1.951636629544702,0.0026585126105442038
2.6620000000000017,5513.828580498501,5.784079543343931,3941367.2786786426,282.4637842112379,3194.7054094561117,51.70916800474843,1.9536372532678186,0.0026964171001248
2.7020000000000017,5508.59640307454,5.8074336415698555,3938554.0949405874,282.43419507218204,3195.2325117856176,51.59990149362743,1.9556359745806318,0.00273424767299809
2.7420000000000018,5503.373126926543,5.830839153099362,3935738.1337254536,282.4045609870303,3195.760522146321,51.490685594508236,1.9576327822441333,0.0027720046866817017
2.782000000000002,5493.915522648417,5.854296388289627,3932919.3905373216,282.3748818431103,3195.9853387414623,51.38152037387487,1.9596276650846762,0.002809688495388125
2.822000000000002,5482.307226963626,5.877992930193116,3930097.8608039515,282.3451575266498,3196.0644818517662,51.27240589814739,1.9616206119960895,0.002847299450108643
2.862000000000002,5470.829224263396,5.901613386716256,3927273.4497194528,282.31538697222084,3196.1426669300813,51.163338900235026,1.9636116789080336,0.002884838772751291
2.902000000000002,5459.470197339039,5.925272753214159,3924446.148672081,282.285570021313,3196.221030113504,51.054319316895,1.9656008573275239,0.0029223068378747977
2.942000000000002,5448.210003977028,5.948996842630819,3921615.956988035,282.2557065987979,3196.2983487731026,50.94534738110574,1.9675881328726266,0.002959703939319377
2.982000000000002,5437.054895307729,5.972771582467765,3918782.867569501,282.2257965614869,3196.3744195055456,50.8364230912106,1.9695734959350018,0.002997030429404054
3.022000000000002,5426.000667071087,5.996602364161239,3915946.875468819,282.1958397885416,3196.450623516204,50.727546527802005,1.9715569353138043,0.0030342866359062983
3.062000000000002,5415.047535843742,6.020487149860685,3913107.9748753253,282.16583614967936,3196.526961616421,50.61871774251927,1.9735384404469634,0.0030714728912017452
3.102000000000002,5404.1934524985645,6.044427533279229,3910266.1604439993,282.13578551920085,3196.6034362085593,50.5099368069648,1.9755180004292503,0.0031085895195326284
3.142000000000002,5393.437308462522,6.06842336763115,3907421.4265461103,282.1056877680713,3196.6800460586933,50.401203785129496,1.9774956045641217,0.0031456368442374584
3.182000000000002,5382.777705294644,6.092475129200468,3904573.767544535,282.0755427668261,3196.7567914527626,50.29251874351442,1.9794712421599199,0.0031826151851491336
3.222000000000002,5372.21336666378,6.116583089454711,3901723.177701948,282.04535038459653,3196.833672152898,50.183881747762335,1.9814449025963639,0.0032195248595059517
3.2620000000000022,5361.894988304203,6.140747587274087,3898869.651210459,282.0151104894192,3196.9060168507986,50.07529286374642,1.983416575301791,0.0032563661817029076
3.3020000000000023,5362.235611715187,6.164971495194746,3896013.1821821984,281.9848229481329,3196.653860567545,49.966752157229294,1.9853862497590393,0.0032931394634137397
3.3420000000000023,5362.586542703192,6.189427595285238,3893153.7634656182,281.9544876138131,3196.3973464528112,49.85825965083538,1.9873539163625196,0.0033298450247065004
3.3820000000000023,5363.082768516816,6.213740501580589,3890291.307061012,281.92410348073764,3196.1427353399204,49.74981243535191,1.9893196239801831,0.003366483936957639
3.4220000000000024,5363.714542262419,6.2381872486818875,3887425.8399950597,281.8936707628925,3195.8868225694637,49.6414117909726,1.9912833379436303,0.003403056188491954
3.4620000000000024,5364.484962319412,6.262670261832375,3884557.345496036,281.86318920912197,3195.6306568754762,49.533057408432015,1.9932450553280967,0.003439562174483912
3.5020000000000024,5365.398580981116,6.287218570895353,3881685.819865272,281.83265870668555,3195.373935281189,49.42474945599429,1.995204763738633,0.003476002164695479
3.5420000000000025,5366.458865357757,6.311824835278933,3878811.255755919,281.8020791037075,3195.1167319606566,49.31648797251471,1.9971624534035826,0.003512376459599039
3.5820000000000025,5367.669902022843,6.336491330844906,3875933.6466495865,281.7714502567306,3194.85902320491,49.20827302971968,1.9991181139420058,0.0035486853487291794
3.6220000000000026,5369.035770120356,6.361217929203693,3873052.9857266056,281.74077201870347,3194.6008094416698,49.100104691315536,2.001071735176636,0.0035849291211994512
3.6620000000000026,5370.560744916635,6.386005079496386,3870169.266138334,281.7100442418728,3194.3420853807247,48.99198302284033,2.003023306937081,0.003621108063208093
3.7020000000000026,5372.249248578567,6.410853099591792,3867282.4809439247,281.6792667771059,3194.0828470238857,48.8839080893874,2.0049728191042537,0.0036572224586486905
3.7420000000000027,5374.105871983076,6.435762338123804,3864392.6231242646,281.648439474035,3193.8230900814724,48.775879956115375,2.0069202615994,0.0036932725890079796
3.7820000000000027,5371.165133282368,6.4607331389156455,3861499.6855788613,281.6175621810197,3193.3845018316806,48.66789868814266,2.008865624385391,0.003729258733420388
3.8220000000000027,5366.378385750749,6.485843867071987,3858603.6611262914,281.5866347451476,3192.8775856774278,48.559964350572145,2.0108088974654175,0.0037651811686889463
3.8620000000000028,5361.597385341912,6.510958766800869,3855704.507560256,281.5556566387417,3192.3706129652464,48.4520757617297,2.012750095526081,0.003801040484567912
