time,thrust,OF,ox_tank.pressure,ox_tank.temperature,combustion_chamber.temperature,propellant_mass,propellant_CG,combustion_chamber.fuel_grain.geometry.length_regressed
0.007,251.43907958126275,5.000114534466524,5161054.822350293,294.0224221545385,2873.80006819178,54.85603016647397,1.78288861524201,1.5516231383987625e-05
0.014,1227.470019281284,4.722260821966865,5159744.511045765,294.01118022992176,2999.096279977905,54.81732264706732,1.783743655614615,3.0951556248100026e-05
0.021,2569.8190299347652,4.67050804885457,5158514.118069058,294.0006219656018,3035.7085692054966,54.78092139672168,1.7845440852317775,4.561278201435042e-05
0.028,3648.8361271760864,4.636417822417823,5157358.865934014,293.990706731986,3053.225480216829,54.746690387538514,1.7852933369840054,5.953864175764599e-05
0.035,4496.89437417081,4.613310205946316,5156270.1304936,293.98136082556823,3062.276916128662,54.714382958720506,1.7859973972325867,7.28060777573141e-05
0.042,5158.318463762928,4.599928927638246,5155238.5476935515,293.97250412319875,3068.1717331554646,54.68373068342581,1.7866627018251537,8.550131039806876e-05
0.049,5663.87634382302,4.5943349230971755,5154254.778214772,293.9640566505829,3072.8767976584286,54.65446530325299,1.7872956239586346,9.77124647738993e-05
0.056,6045.08116924838,4.594497084032558,5153310.092296275,293.95594361155065,3077.013535469442,54.62633562514944,1.7879020883652594,0.0001095235526254197
0.063,6335.72563231813,4.59851340821198,5152396.714201683,293.9480983556941,3080.7814150921936,54.599117571530975,1.7884873492980229,0.00012101061049366756
0.07,6526.376589201007,4.604803243398865,5151507.98290168,293.9404637681158,3084.2161261637884,54.5726189523199,1.7890558919003539,0.00013223961561346058
0.07700000000000001,6691.129238122324,4.612207413342651,5150638.374548732,293.9329924714982,3087.3197418149953,54.54668023490149,1.7896114249565769,0.00014326583747358265
0.08400000000000002,6813.949374263946,4.619989143975002,5149783.428760162,293.92564620071255,3090.0938282413686,54.5211725070357,1.7901569362505945,0.00015413425515195108
0.09100000000000003,6905.16824075142,4.627715098025652,5148939.617002721,293.9183946786092,3092.5624765079856,54.49599373588326,1.7906947848478114,0.00016488066259213874
0.09800000000000003,6973.413833413911,4.635176810864025,5148104.194232489,293.91121434652723,3094.437227928374,54.47106451722394,1.791226803096615,0.00017553302925614264
0.10500000000000004,7024.268140225803,4.642319205921749,5147275.051905209,293.90408710531,3095.942076759561,54.44632384619292,1.7917543966074618,0.00018611290886549257
0.11200000000000004,7061.851457094331,4.649131982737591,5146450.582825913,293.8969991569727,3097.279281131839,54.42172521911492,1.7922786355484406,0.00019663676846753156
0.11900000000000005,7089.562142263453,4.655642111020618,5145629.572070374,293.8899400695731,3098.48079154363,54.39723348257217,1.792800328078058,0.0002071170764949423
0.12600000000000006,7109.942288611215,4.6618988273099005,5144811.107571604,293.88290201043503,3099.5810423276434,54.372822247927125,1.7933200803517093,0.00021756320424914114
0.13300000000000006,7124.887112199816,4.667951191683529,5143994.507419735,293.87587912251445,3100.6035694722673,54.34847178790406,1.7938383451855875,0.0002279821642522772
0.14000000000000007,7135.8060389554375,4.673843193303112,5143179.263373094,293.86886703972914,3101.5670434286567,54.32416740160066,1.794355459803251,0.0002383791866986955
0.14700000000000008,7143.745381616694,4.67961164786086,5142364.997484311,293.86186251474663,3102.485979421163,54.29989815885633,1.794871674777767,0.00024875816349418853
0.15400000000000008,7149.480890603103,4.68528619401796,5141551.429164776,293.8548631363019,3103.371512898778,54.27565594673481,1.7953871759834696,0.0002591219861445625
0.1610000000000001,7153.587174986382,4.69089009532437,5140738.3503583325,293.84786711608376,3104.23210436567,54.25143475079551,1.7959021011268097,0.0002694728007864141
0.1680000000000001,7156.489563926642,4.696441300206898,5139925.606927884,293.84087312893115,3105.0741369556476,54.227230116277354,1.7964165521299047,0.00027981219953886107
0.1750000000000001,7158.5027339296585,4.701953491744917,5139113.084754713,293.8338801934735,3105.902401913878,54.20303874576042,1.7969306043718,0.0002901413634550468
0.1820000000000001,7159.859415313011,4.707437013541621,5138300.699387029,293.82688758323513,3106.7204821987702,54.178858199607106,1.797444313565535,0.00030046116897789024
0.22200000000000011,7160.731691119277,4.712899637750564,5137488.388347663,293.81989476056737,3107.5310499211296,54.154686673399056,1.797957720865391,0.00031077226703436734
0.2620000000000001,7152.726767873328,4.722425960039794,5132840.198005841,293.77986416752003,3108.8568209794803,54.01662796472043,1.800887944451435,0.0003695917003413495
0.3020000000000001,7148.674639597314,4.753567328469896,5128187.991829058,293.73977100460763,3113.3913232231735,53.8786789878952,1.8038125109513847,0.00042819360951083644
0.3420000000000001,7146.452490356526,4.7836042205712355,5123531.679886949,293.69961438408995,3117.7778368161753,53.74083723230128,1.8067314463614268,0.00048658091619209064
0.38200000000000006,7143.5705344316775,4.815168796139541,5118872.328475243,293.65940339759817,3122.379310250159,53.603133243670705,1.80964402653376,0.0005447449583692243
0.42200000000000004,7141.279635126235,4.845949107754498,5114209.359241766,293.61913295370096,3126.868500063215,53.46555048078575,1.8125505992996533,0.0006026935560109437
0.462,7138.817219907874,4.877301547188772,5109543.124702185,293.57880599427085,3131.436905344189,53.32809902489046,1.8154509083310197,0.0006604251884192597
0.502,7136.63829949465,4.9084035082230795,5104873.412539488,293.53842058281214,3135.968447172899,53.19077284579773,1.8183450634987415,0.0007179439189648815
0.542,7131.886069142454,4.939752787529453,5100200.3492130395,293.4979777102878,3140.149536507279,53.05357557860016,1.8212329562964968,0.0007752504197468765
0.5820000000000001,7118.367560710046,4.971398611552535,5095523.857404913,293.45747660496085,3143.1167099480185,52.916505070445375,1.8241146098017769,0.0008323473379835723
0.6220000000000001,7103.195512620868,5.003852200681639,5090843.652890022,293.4169146990317,3146.143048783265,52.77955333724222,1.826990178746826,0.0008892392831655922
0.6620000000000001,7089.112922460946,5.0351159090697974,5086158.810620241,293.3762838576611,3149.060320768992,52.642694350393896,1.8298602232779273,0.0009459369790708497
0.7020000000000002,7074.665371675706,5.0670629054338745,5081469.768230402,293.3355877537592,3152.0359170239158,52.50594069454683,1.8327244336238862,0.0010024378451834644
0.7420000000000002,7060.55306716255,5.098783001447879,5076776.30437987,293.2948243452633,3154.98975609379,52.3692863261976,1.8355829198860525,0.0010587456612258612
0.7820000000000003,7046.437326714099,5.130720037070422,5072078.51681179,293.2539943584717,3157.9616706481,52.23273422227816,1.8384355898824154,0.0011148610966166964
0.8220000000000003,7032.478572837346,5.162660104581987,5067376.348974554,293.21309717921696,3160.932478473897,52.096283019122,1.841282449367981,0.0011707862751684408
0.8620000000000003,7018.598205795795,5.194707603688111,5062669.818122228,293.1721328341153,3163.9115403431188,51.95993344012178,1.844123457786319,0.001226522586044648
0.9020000000000004,7004.831719096296,5.226813365399993,5057958.905695661,293.13110103773926,3166.8944528314332,51.82368521142348,1.8469585973707914,0.0012820717320818603
0.9420000000000004,7000.092104541381,5.25900202126131,5053243.609810023,293.0900016491547,3168.9281607555154,51.687538536181535,1.8497878401423464,0.0013374352308522734
0.9820000000000004,6997.823989721168,5.291564917597159,5048523.920230379,293.048834454086,3170.684821792593,51.551493392578486,1.8526111635829887,0.0013926146523485215
1.0220000000000005,6995.711616344839,5.323921563800819,5043799.5600983575,293.007596909449,3172.429099405228,51.415542342671806,1.8554287102596148,0.0014476140196306585
1.0620000000000005,6993.740939682583,5.356410793594105,5039070.55992286,292.9662891505695,3174.179348935669,51.27968655160837,1.8582404314345462,0.0015024344418126912
1.1020000000000005,6991.936168538159,5.388958078309051,5034336.894763256,292.9249108281999,3175.931747643036,51.14392564681627,1.8610463129545045,0.0015570775210058336
1.1420000000000006,6990.29067379482,5.421595649181956,5029598.561974085,292.88346178709463,3177.6879403164144,51.008259884951414,1.8638463270863344,0.0016115446281279105
1.1820000000000006,6988.811274099485,5.454310621069996,5024855.548916105,292.8419417839527,3179.4472689730246,50.87268925328033,1.8666404524441664,0.0016658372030019918
1.2220000000000006,6987.499305606433,5.4871095904640415,5020107.84685108,292.80035060886394,3181.2100695334666,50.73721385560019,1.8694286654289618,0.0017199566264211835
1.2620000000000007,6986.358566034653,5.519990776164957,5015355.444991189,292.75868803324363,3182.976250432459,50.60183374707769,1.8722109438719556,0.001773904275350293
1.3020000000000007,6981.592457747996,5.552955981962983,5010598.333042058,292.7169538320812,3184.2787940400885,50.46654900457312,1.8749872654713011,0.001827681500057388
1.3420000000000007,6972.729040255388,5.586286510633818,5005836.500128784,292.67514777451976,3185.1266728691407,50.331359696849326,1.8777576084394174,0.0018812896343363941
1.3820000000000008,6963.6560696612905,5.619639104230213,5001069.694994089,292.6332675162102,3185.9713225499995,50.196259302894184,1.8805220956586257,0.001934732143287593
1.4220000000000008,6954.715675481678,5.652879502912513,4996297.769626969,292.59131161394527,3186.8131761486284,50.06124418160462,1.8832807864473102,0.001988011514823136
1.4620000000000009,6945.770837834927,5.686294668497054,4991520.773366778,292.5492803572409,3187.6587559060017,49.926316122853166,1.8860336213277022,0.002041128443898744
1.502000000000001,6936.870145712568,5.719768839461201,4986738.670844138,292.50717329020836,3188.505351474453,49.791474599604264,1.8887805918599085,0.0020940843640626134
1.542000000000001,6927.9959118900015,5.753344954205099,4981951.457138187,292.4649902239085,3189.353970125949,49.65671992674183,1.8915216714779888,0.0021468804179677835
1.582000000000001,6919.153670089171,5.787008877386329,4977159.116233524,292.4227308708666,3190.204276722575,49.522052123238126,1.8942568403543443,0.0021995178277491195
1.622000000000001,6910.340913246745,5.820766572410683,4972361.635630419,292.3803949736846,3191.056409508808,49.38747131157969,1.8969860766738438,0.002251997765753157
1.662000000000001,6897.05180590185,5.854616999146576,4967559.001266828,292.3379822602895,3191.5859212942228,49.25297757908497,1.8997093596480914,0.002304321399729879
1.702000000000001,6878.917616447103,5.888745172452125,4962751.199272811,292.2954924593881,3191.761916963185,49.118571025661495,1.9024266684686628,0.002356489877715056
1.742000000000001,6861.063631187089,5.922953014655925,4957938.064983961,292.2529239646114,3191.9357488966675,48.984247680776335,1.9051380704643066,0.0024085056316747997
1.7820000000000011,6843.755184215802,5.957100174779357,4953119.476862437,292.21027554654205,3192.1095230841,48.85000477247836,1.907843606789887,0.0024603706844994588
1.8220000000000012,6826.8265002461,5.991408031430681,4948295.4628991475,292.1675472969052,3192.283910197405,48.7158435852535,1.910543231120279,0.0025120857470973717
1.8620000000000012,6810.244371504388,6.025796375973764,4943465.99155505,292.1247387797014,3192.4582965458612,48.58176380128764,1.9132369319447333,0.0025636520274950627
1.9020000000000012,6793.350963241028,6.060290833053868,4938631.049092585,292.08184971546956,3192.630454572135,48.44776559098077,1.9159246874334321,0.0026150705640533064
1.9420000000000013,6776.624638430401,6.094888316066548,4933790.615999211,292.03887977249707,3192.8029291677835,48.313848976619056,1.9186064791442672,0.0026663424282874484
1.9820000000000013,6760.074234719538,6.129580988076804,4928944.671227618,291.9958286043055,3192.9757788845363,48.18001394710133,1.921282289537048,0.002717468688461943
2.022000000000001,6747.138677239458,6.164378277033747,4924093.199335358,291.9526959130924,3192.8074426929225,48.04626064900431,1.9239520978832187,0.002768450349714404
2.062000000000001,6735.588423613669,6.199444869471013,4919236.182467776,291.9094813785552,3192.480213347282,47.91258917133642,1.926615884873978,0.0028192884223059017
2.102000000000001,6724.053291310932,6.23449926048244,4914373.471990888,291.8661835143835,3192.152567169599,47.77899612704499,1.9292737053119084,0.0028699849903456734
2.1420000000000012,6712.566111081737,6.269635801218345,4909505.036908243,291.8228018782716,3191.824499510444,47.64548128771426,1.9319255465980736,0.0029205411302745377
2.1820000000000013,6701.104926513289,6.30489248345162,4904630.867055588,291.7793362122727,3191.495523976851,47.51204498728278,1.934571384331273,0.0029709577303416164
2.2220000000000013,6689.675788951877,6.340253148954614,4899750.939918368,291.7357861472523,3191.1658007076903,47.37868723797099,1.9372112011113725,0.0030212357673187517
2.2620000000000013,6678.276865831536,6.375723295445558,4894865.236235215,291.6921513418728,3190.835276407354,47.245408145765055,1.9398449776986975,0.003071376176853692
2.3020000000000014,6666.908055444666,6.411302760821665,4889973.735695075,291.648431444223,3190.5039490540685,47.112207795982044,1.9424726954385723,0.0031213798893783354
2.3420000000000014,6657.28535216169,6.44699256419664,4885076.417866732,291.6046261000929,3190.1251013251103,46.97908627794355,1.9450943357327262,0.003171247822626452
2.3820000000000014,6659.606566405438,6.482813244325274,4880173.26203719,291.5607349515151,3189.4256197626964,46.8460436806856,1.9477098801248043,0.0032209808831637063
2.4220000000000015,6662.24150602044,6.518858840275653,4875264.2322740005,291.516757502877,3188.7204332642514,46.713079700544604,1.9503193185248373,0.0032705800871097924
2.4620000000000015,6665.331458332125,6.55487110918055,4870349.210158914,291.47269251708923,3188.014718015155,46.58019188055145,1.9529226859873738,0.003320047098639587
2.5020000000000016,6668.898216039373,6.591043890108,4865428.207094751,291.4285399183322,3187.3051189031394,46.44738118713927,1.955519945764536,0.0033693825175330136
2.5420000000000016,6672.955512451517,6.62732284168643,4860501.193063573,291.3842992583231,3186.593910132641,46.31464750538484,1.9581110839101803,0.003418587265451012
2.5820000000000016,6677.5277582912695,6.66371880801314,4855568.146233584,291.33997016082105,3185.880902436886,46.18199094252147,1.9606960819305175,0.003467662185588627
2.6220000000000017,6682.6374563186355,6.700232139216634,4850629.043831944,291.2955522397894,3185.1660816741414,46.04941158833092,1.9632749218010859,0.0035166081163868416
2.6620000000000017,6688.308938671592,6.7368634630838296,4845683.8626740845,291.25104510412035,3184.449434643812,45.91690952906586,1.965847585669896,0.0035654258874205425
2.7020000000000017,6676.758842568022,6.773613779178226,4840732.579383274,291.2064483595906,3183.5152693881846,45.78448485319194,1.9684140557332235,0.003614116317812734
2.7420000000000018,6660.624697597796,6.81055020413751,4835775.17029469,291.1617616079809,3182.519842678146,45.65213764889964,1.9709743142828937,0.003662680217152829
2.782000000000002,6644.593276948497,6.847550823846596,4830811.56308934,291.1169840105674,3181.5232200495366,45.51986675349704,1.9735283694987837,0.0037111187625671715
2.822000000000002,6628.652265147883,6.8846749522959145,4825841.736268501,291.0721151848233,3180.524001129015,45.3876723321426,1.9760762021083422,0.0037594327193937317
2.862000000000002,6612.797560791793,6.9219242848434925,4820865.666451265,291.0271547298319,3179.5220992630207,45.255554508216974,1.9786177937850802,0.0038076228565757262
2.902000000000002,6597.029795426224,6.95929676681333,4815883.328128012,290.98210222398114,3178.5175726797115,45.12351335737347,1.981153127258238,0.00385568994845894
2.942000000000002,6581.347754453333,6.996794226878932,4810894.696175645,290.9369572476493,3177.510372432543,44.9915489725617,1.9836821849681245,0.003903634755350317
2.982000000000002,6565.750593278873,7.034417448288047,4805899.7450741185,290.89171937611076,3176.500476556176,44.85966144382244,1.9862049494781862,0.003951458029738991
3.022000000000002,6553.74578306208,7.0721673673682,4800898.449033787,290.84638818066725,3175.3488752592066,44.727850861598924,1.9887214034028131,0.0039991605154389
3.062000000000002,6543.379388548469,7.110071011616007,4795890.781991251,290.8009632285904,3174.1250979706274,44.5961173166567,1.991231529405011,0.004046742947748395
3.102000000000002,6533.015782942512,7.1480880799474456,4790876.699167774,290.75544391561743,3172.898368132765,44.464460430077125,1.9937353197392604,0.004094206192972492
3.142000000000002,6522.6645808357825,7.1862274505840515,4785856.169959583,290.7098297642083,3171.6685725320017,44.33288019433992,1.9962327591032403,0.0041415509982278996
3.182000000000002,6512.321427934143,7.224500494104376,4780829.169472604,290.66412034704274,3170.435327188779,44.20137675503336,1.998723829124267,0.0041887780571530754
3.222000000000002,6501.986767800321,7.262904642484047,4775795.6700214185,290.61831520982656,3169.1987121903408,44.0699501940096,2.0012085127645687,0.0042358880744110565
3.2620000000000022,6491.660296885429,7.301441409913463,4770755.644094833,290.5724138981986,3167.958681179532,43.93860060503772,2.0036867927802327,0.004282881743364052
3.3020000000000023,6481.34170238797,7.34011178209457,4765709.063883296,290.5264159534174,3166.7152026769895,43.80732808179969,2.006158651961283,0.004329759749752216
3.3420000000000023,6470.91851023673,7.378916708297196,4760655.901272052,290.4803209122772,3165.3478610620155,43.67613271775919,2.008624073130619,0.004376522771848364
3.3820000000000023,6460.466957649485,7.417861285805947,4755596.127864514,290.43412830729886,3163.943270553535,43.545014606795675,2.011083039127644,0.004423171480386088
3.4220000000000024,6450.02232413874,7.456939035865483,4750529.712164811,290.38783764095575,3162.534841198229,43.41397377248324,2.0135355342182866,0.004469706559324942
3.4620000000000024,6439.584488640787,7.496154193980616,4745456.625257087,290.34144843750124,3161.12243622689,43.283010311162464,2.0159815412232476,0.004516128664064435
3.5020000000000024,6429.152905015124,7.535508121090576,4740376.8380232295,290.2949602175797,3159.7060055638585,43.15212432169707,2.018421042927591,0.004562438442189896
3.5420000000000025,6418.727374939215,7.575001561277994,4735290.32088063,290.2483724958051,3158.285523998227,43.02131589895174,2.0208540222073554,0.004608636535478764
3.5820000000000025,6408.307626328994,7.61463558884893,4730197.043994761,290.2016847826807,3156.860954661042,42.890585139177084,2.023280461918551,0.004654723578432342
3.6220000000000026,6397.883518036114,7.654411224464518,4725096.977229861,290.1548965841255,3155.4190487974415,42.75993213882245,2.0257003449175266,0.004700700198724545
3.6620000000000026,6387.37481064476,7.694328430458972,4719990.090149593,290.1080074014568,3153.866779235938,42.62935699460395,2.0281136540563063,0.004746567017282358
3.7020000000000026,6376.887313363611,7.7343748514264385,4714876.352726592,290.0610167378893,3152.310750162258,42.498859821144414,2.0305203718318756,0.00479232464329962
3.7420000000000027,6366.400118525123,7.774582347205612,4709755.744080361,290.0139241789309,3150.749544444825,42.368440967028846,2.0329204761403363,0.004837973612216922
3.7820000000000027,6355.917825549515,7.814931763229024,4704628.230128579,289.9667291869298,3149.183902608123,42.238100460793426,2.0353139511880984,0.004883514545539327
3.8220000000000027,6345.4399297013715,7.855428079814959,4699493.779516051,289.91943124735684,3147.6136449576784,42.10783840658943,2.0377007796783593,0.004928948036657144
3.8620000000000028,6334.965995283441,7.896072345801049,4694352.360423038,289.87202983945855,3146.038730768995,41.97765490501849,2.040080944369686,0.004974274673788845
