time,thrust,OF,ox_tank.pressure,ox_tank.temperature,combustion_chamber.temperature,propellant_mass,propellant_CG,combustion_chamber.fuel_grain.geometry.length_regressed
0.007,250.00741057957075,3.36714023482749,4406587.37838074,287.1540915679687,2585.591925340381,53.8037308093697,1.920406024997854,1.9314429634691798e-05
0.014,1177.295827118496,3.13794301597055,4405572.0485284785,287.1442680794964,2533.501629107836,53.76591871445297,1.9210306350026058,3.851234457137676e-05
0.021,2401.2512527074423,3.096793641130679,4404632.192811828,287.1351732996382,2520.038479177137,53.73080052363245,1.9216052009186961,5.659105924734469e-05
0.028,3365.6960074023114,3.0645633722205177,4403759.356078318,287.1267257418105,2504.362887962451,53.698080334861636,1.9221355424948567,7.365952126653267e-05
0.035,4096.148054109555,3.041758292308166,4402944.41836739,287.1188374110863,2492.4522230924376,53.667437235469066,1.922627846124932,8.984092627045982e-05
0.042,4658.175033623068,3.0269729077195557,4402178.069266189,287.1114184012156,2484.5918259177424,53.638541959776234,1.9230883518136186,0.00010526611097023946
0.049,5082.547232682175,3.0187998979714585,4401451.522551943,287.10438382120674,2480.3709133635557,53.611082443153286,1.9235228932943218,0.0001200624655632316
0.056,5403.451140423758,3.015590686782409,4400756.873588008,287.0976572660631,2478.9794236411312,53.584776887236494,1.9239366781869838,0.0001343475989271669
0.063,5645.212007268174,3.0158074657132787,4400087.304211063,287.0911728111295,2479.5627708103593,53.55938146793036,1.924334169530395,0.00014822510904378692
0.07,5820.380338263839,3.0181879773471962,4399437.136233764,287.0848755398117,2481.391804893574,53.53469261382599,1.924719064664695,0.00016178273214894395
0.07700000000000001,5946.498575736749,3.021826891699284,4398801.777503948,287.0787210294754,2483.9319417396537,53.510545362394694,1.9250943410956038,0.00017509236049375915
0.08400000000000002,6038.299560230015,3.026113205601505,4398177.598533559,287.072674163365,2486.822409131717,53.486809135940796,1.9254623441582852,0.00018821139000131358
0.09100000000000003,6107.160501897723,3.0306783298885236,4397561.784747475,287.0667077048649,2489.8451085358965,53.46338256285326,1.9258248876905164,0.00020118466782752104
0.09800000000000003,6157.186713605658,3.035317812739095,4396952.185520277,287.0608008393023,2492.8844208547403,53.440188124446394,1.92618335467627,0.00021404665404625584
0.10500000000000004,6193.3506926578975,3.0399322643941598,4396347.176330324,287.05493784169647,2495.883477890301,53.41716723468114,1.9265387879882974,0.0002268234851021867
0.11200000000000004,6219.3361744271615,3.0444801852599404,4395745.540487276,287.04910693323484,2498.8233547744203,53.39427600097558,1.926891967598907,0.00023953479356812746
0.11900000000000005,6237.860497007001,3.0489516349772274,4395146.372753253,287.04329934917365,2501.7023870627013,53.37148176044393,1.927243473145877,0.00025219521743028583
0.12600000000000006,6250.922747099037,3.053351401115398,4394549.0029376075,287.03750859974326,2504.5267848523417,53.34876032907296,1.9275937333319864,0.00026481561091885555
0.13300000000000006,6259.990582400023,3.0576900292879197,4393952.936717623,287.0317298975816,2507.3056094655167,53.326093868597866,1.9279430640750708,0.000277403989937006
0.14000000000000007,6266.139799476407,3.0619792603751335,4393357.810517982,287.0259597211186,2510.0480753746406,53.30346925892905,1.9282916975315363,0.0002899662568331642
0.14700000000000008,6270.158019302752,3.066229943052721,4392763.357502215,287.0201954854408,2512.762376438222,53.28087687086737,1.9286398039359594,0.00030250674867720055
0.15400000000000008,6272.621354765326,3.070451268915638,4392169.382155818,287.01443529627403,2515.4553152954218,53.25830964866673,1.9289875079023868,0.00031502864799531677
0.1610000000000001,6273.950909808299,3.0746506546922006,4391575.741407999,287.00867776723334,2518.132315356717,53.235762428564115,1.929334900519792,0.0003275342882862835
0.1680000000000001,6274.454312785796,3.0788339068501718,4390982.33067377,287.002921884688,2520.7975904241403,53.21323143494483,1.9296820482877275,0.0003400253800911671
0.1750000000000001,6274.356192270969,3.08300548221284,4390389.07356866,286.99716690817246,2523.4543587887883,53.190713909121826,1.9300289996963376,0.00035250317763498896
0.1820000000000001,6273.820508502808,3.08716875618212,4389795.914348533,286.9914122971754,2526.1050497134247,53.16820783652219,1.9303757900601632,0.00036496860131423085
0.1890000000000001,6272.966899938486,3.091326261579977,4389202.812363069,286.98565765742273,2528.7514819209814,53.14571174657617,1.930722445062756,0.00037742232753950277
0.22900000000000012,6271.882639296979,3.095479886694279,4388609.737991988,286.97990270151706,2531.3950092070227,53.123224566144614,1.9310689833524466,0.00038986485452948354
0.26900000000000013,6262.9209975581225,3.102248297910713,4385215.631400932,286.946956409708,2535.689043432835,52.99479725966653,1.9330479329640653,0.00046084308089594343
0.3090000000000001,6249.465293734365,3.127576774080609,4381818.203001191,286.9139586875981,2551.080499906069,52.86650907006882,1.9350257097501,0.0005315255546344238
0.3490000000000001,6250.0039151020965,3.1476024146803123,4378416.101956118,286.88089632300375,2561.8960613768377,52.7383109282064,1.9370031181731513,0.0006019370009768506
0.38900000000000007,6242.855412920511,3.1751357394007873,4375014.129433359,286.8478159117006,2576.748898202472,52.610372780846646,1.938977089986135,0.0006720054067052921
0.42900000000000005,6242.693693234163,3.1959038365001633,4371607.894541008,286.81467469739647,2587.962697110662,52.4825372760822,1.9409503471985459,0.0007418032734449529
0.46900000000000003,6236.382088861976,3.222892929101981,4368201.3748359,286.78151131662105,2602.5204861843586,52.354944545180395,1.9429203513076523,0.0008112720387545779
0.509,6235.755699036231,3.2443286951669976,4364791.035172248,286.7482912939618,2614.09235501755,52.22746820182988,1.9448892790677548,0.0008804700843966042
0.549,6230.121593266856,3.270933604839653,4361380.123794841,286.7150462080548,2628.4415307081695,52.10022210079649,1.946855059206449,0.0009493505984071289
0.5890000000000001,6229.167736874703,3.292917337256579,4357965.746239997,286.68174778788585,2640.3069558247093,51.973102991304344,1.948819461423891,0.0010179614378814045
0.6290000000000001,6224.085975978563,3.3192495207023978,4354550.586594143,286.6484221482356,2654.507686466059,51.846204465103895,1.9507807753067143,0.0010862647872635725
0.6690000000000002,6222.905635294787,3.3416897465645157,4351132.245360172,286.61504581517755,2666.6173955113163,51.719441106729036,1.952740457054425,0.0011543004086524715
0.7090000000000002,6218.2812195486,3.367834408672369,4347712.96832422,286.5816406555869,2680.7156700871064,51.592890812063835,1.9546970762647227,0.0012220374045405359
0.7490000000000002,6216.949885911013,3.39066183216033,4344290.741709076,286.54818693662804,2693.032361166863,51.46648203806942,1.9566518455923154,0.0012895092504329974
0.7890000000000003,6212.710016333871,3.416685023854111,4340867.468166532,286.5147031974922,2707.0638263237984,51.340280427663714,1.9586035536549975,0.001356690409234415
0.8290000000000003,6209.93460090611,3.43984680356117,4337441.436716444,286.4811726441807,2717.9459435235085,51.214225310556486,1.9605532225139222,0.0014236094326439983
0.8690000000000003,6202.627905934736,3.466569923592403,4334014.27947803,286.44761119084836,2729.9030700628196,51.08837269524455,1.962499813386328,0.0014902449662373243
0.9090000000000004,6198.311974545132,3.490014987093471,4330583.761689102,286.4139968881048,2740.399342696056,50.96264401311413,1.9644446657976624,0.001556632891032649
0.9490000000000004,6191.434649032284,3.51620860849523,4327151.497187529,286.38034547890146,2752.117251868955,50.837094592717335,1.9663867549514658,0.0016227521089647217
0.9890000000000004,6186.864925770514,3.5401067180410304,4323716.08453742,286.3466431541799,2762.8132145205477,50.711675120265234,1.9683269048123728,0.0016886258250469132
1.0290000000000004,6180.39681161276,3.5661341312753425,4320278.771500802,286.3129020845098,2774.454972808223,50.58642808891337,1.9702643192996097,0.0017542384078571332
1.0690000000000004,6175.678009260095,3.5904306293064407,4316838.513704576,286.2791119494625,2785.3263859945664,50.46131673096779,1.9721996021309602,0.0018196075903735638
1.1090000000000004,6169.53690188221,3.6163768971510457,4313396.258303169,286.24528198217894,2796.9300220161767,50.33637304788378,1.9741321443398883,0.0018847221687279111
1.1490000000000005,6164.734208327438,3.6410091707940175,4309951.218054025,286.21140437716986,2807.9486485901853,50.21156928522269,1.9760623918355669,0.0019495959466993564
1.1890000000000005,6158.8590445408545,3.6669337608943593,4306504.118260175,286.17748619754155,2819.5399685952066,50.08692973311771,1.9779898734880463,0.0020142209409655183
1.2290000000000005,6154.018346065091,3.6918565372341265,4303054.361228504,286.1435214938097,2830.685701209422,49.962433266108356,1.9799149195181192,0.0020786080643185314
1.2690000000000006,6148.364320865622,3.7178035478496247,4299602.507751795,286.1095157183506,2842.2851319891643,49.838098480400554,1.9818371608655458,0.00214275168368587
1.3090000000000006,6145.707790847721,3.742984347053387,4296148.101023555,286.07546430274806,2851.958930332819,49.71390916752598,1.9837568422869962,0.0022066605633800623
1.3490000000000006,6142.216797623893,3.7696845705406203,4292691.578960079,286.0413714951401,2861.629851027479,49.589879689693156,1.9856736708973595,0.0022703307946851017
1.3890000000000007,6139.59602475044,3.795045598727919,4289231.948756901,286.0072274294394,2870.817423729299,49.46597572601377,1.9875882110691026,0.002333778465712239
1.4290000000000007,6136.305585626697,3.8214553069035846,4285769.761746961,285.9730374690078,2880.379957025404,49.34221556397057,1.9895001019831402,0.002396997966996958
1.4690000000000007,6133.685504197734,3.847122393287759,4282304.559865589,285.93879701303877,2889.6748685582197,49.21858321140342,1.9914095863171701,0.002459997724589153
1.5090000000000008,6130.642212062457,3.8735558955647753,4278836.74659896,285.90450997044564,2899.2434434648067,49.095091907549275,1.9933163934484073,0.002522774172205959
1.5490000000000008,6128.076625527744,3.8995064061267226,4275366.017532076,285.8701732540345,2908.6377254297254,48.97173093618046,1.9952206742866503,0.002585333495888967
1.5890000000000009,6125.246104261322,3.926014515236262,4271892.652933793,285.835789558743,2918.2306913725633,48.84850935090043,1.997122233074266,0.0026476738046784477
1.629000000000001,6122.7631204390955,3.9522154758943,4268416.449112275,285.80135679080234,2927.7125235435124,48.72541988898554,1.9990211610510495,0.0027097998087572605
1.669000000000001,6120.121567008351,3.9788314155906144,4264937.602626477,285.76687681951233,2937.341872173736,48.60246877616719,2.0009173133244897,0.0027717107278294752
1.709000000000001,6117.739784264892,4.00526126119306,4261455.977800398,285.73234822278795,2946.9035419063844,48.4796510795534,2.0028107412305554,0.002833410266285386
1.749000000000001,6114.237953886491,4.032008584824835,4257971.714256577,285.6977723077643,2956.1158304589158,48.35697111364016,2.0047013345364,0.002894898375934344
1.789000000000001,6106.871422952273,4.058845255897007,4254484.7224323535,285.66314810833575,2963.66240997178,48.23442552517205,2.0065891178484736,0.0029561780682398116
1.829000000000001,6098.53049286485,4.086357244600116,4250994.937970342,285.62847490648613,2971.3911901631313,48.11201183396964,2.00847410086664,0.0030172519691792172
1.869000000000001,6090.950859625067,4.113030669874552,4247501.814948067,285.59374719331856,2978.885737210849,47.98971157509123,2.0103565730284023,0.003078129035169211
1.9090000000000011,6082.857283295818,4.140483785283125,4244005.738918859,285.5589687153525,2986.5949736317816,47.86753734036532,2.0122362810238377,0.003138805795274788
1.9490000000000012,6075.244430794299,4.167496184827005,4240506.425452743,285.52413655722023,2994.18080247086,47.745479444012204,2.0141133613726807,0.003199287631243398
1.9890000000000012,6067.340813495115,4.195026939145744,4237004.11534669,285.4892530292437,3001.9088450485624,47.623545649303296,2.0159876462274275,0.003259572969750068
2.0290000000000012,6059.743978013955,4.222328590876981,4233498.641475982,285.45431638066964,3009.5721999947846,47.50173020609975,2.0178592040773435,0.0033196655745726233
2.0690000000000013,6051.989553529609,4.249986903163977,4229990.153366663,285.41932801511985,3017.332953536518,47.38003784982055,2.0197279208974286,0.0033795650422298717
2.1090000000000013,6044.437027369537,4.277545538252333,4226478.554070801,285.3842868793926,3025.0649039075392,47.25846518251002,2.021593824877707,0.0034392741590646755
2.1490000000000014,6036.806593706171,4.305362878799719,4222963.937896122,285.34919382786745,3032.867134389892,47.137015119953396,2.023456834604359,0.003498793206606799
2.1890000000000014,6030.32207253622,4.333160205878484,4219446.2500726115,285.3140482270772,3040.2983224701998,47.015685678641006,2.0253169543610845,0.003558124371859946
2.2290000000000014,6028.390993721354,4.361321222398294,4215925.5514469845,285.2788505981357,3046.094246250222,46.89447868108054,2.0271741225952224,0.0036172683318700135
2.2690000000000015,6025.734734318117,4.390061930155333,4212401.679730648,285.24359923054857,3052.000575241049,46.773388655796964,2.029028404830771,0.0036762285886909785
2.3090000000000015,6023.581538071569,4.418033325764805,4208874.132380472,285.20828900251274,3057.750057605587,46.65239908225794,2.0308800583321363,0.003735012894989738
2.3490000000000015,6021.2097271698685,4.4467099258656955,4205343.2352006035,285.17292307874027,3063.6402030568374,46.53152052975787,2.0327288703045974,0.0037936184377838625
2.3890000000000016,6019.145976765717,4.475068234556775,4201808.7632656945,285.1374991104394,3069.464903168437,46.410745605086944,2.034574939935164,0.0038520493642427178
2.4290000000000016,6017.018045265032,4.503849694396268,4198270.889141883,285.10201873041945,3075.3734161384864,46.290079869010285,2.0364181421545795,0.003910304785216703
2.4690000000000016,6015.092053122635,4.532522814448929,4194729.500783525,285.0664807185351,3081.258816641734,46.169519635114085,2.038258512410947,0.00396838737141516
2.5090000000000017,6013.180717926639,4.56147135399605,4191184.689404058,285.0308858931311,3087.1982761436784,46.049067820819914,2.0400959721519643,0.0040262972300987
2.5490000000000017,6011.4185596163215,4.590421405548308,4187636.400646612,284.9952336114304,3093.136750959418,45.92872263368318,2.0419305245981443,0.004084036266466123
2.5890000000000017,6009.712033883814,4.61957126480017,4184084.6837943387,284.959524271289,3099.11407686817,45.808485639669854,2.043762115228933,0.004141605080651268
2.629000000000002,6005.851410694179,4.648780472341778,4180529.513878224,284.92375752424607,3103.919788065642,45.688356013833925,2.0455907311068136,0.004199005174529944
2.669000000000002,5999.912902590701,4.678765442348203,4176970.918573151,284.8879335510072,3108.139267093111,45.56833463408014,2.047416330202086,0.004256237384229766
2.709000000000002,5994.0141789628115,4.7083701389575685,4173408.4192300243,284.85204743068385,3112.3025576142622,45.4484061577616,2.049239149889349,0.004313308693731543
2.749000000000002,5988.107227754655,4.73815374185805,4169842.0367736253,284.8160992669159,3116.4890107542433,45.3285713353867,2.051059150242781,0.004370219924514789
2.789000000000002,5982.2583185758085,4.768018073153831,4166271.748107176,284.7800887193603,3120.6853379910694,45.20882951427531,2.0528763157240446,0.004426972417420175
2.829000000000002,5976.426164367654,4.798041288570466,4162697.571613414,284.7440158654767,3124.902229853261,45.08918137564844,2.0546906081027774,0.004483566994418723
2.869000000000002,5970.636946851618,4.828175282036054,4159119.499288668,284.7078805162612,3129.1331162232195,44.96962676385833,2.0565020037689896,0.00454000478158072
2.909000000000002,5964.87351917519,4.8584530260358605,4155537.539830561,284.6716826509574,3133.382499878002,44.85016606196501,2.058310470101992,0.004596286689065258
2.949000000000002,5959.14647056224,4.88885514921443,4151951.6909222766,284.6354221372427,3137.6477385591807,44.73079930836681,2.06011598062374,0.004652413744715467
2.989000000000002,5953.448682442274,4.919396015653715,4148361.957013556,284.5990989108457,3141.930792135021,44.611526762412154,2.0619185052969518,0.004708386881248633
3.029000000000002,5944.533635394379,4.950068311309569,4144768.3379397704,284.5627128604945,3145.3327053990915,44.4923485429125,2.063718016711812,0.004764207072319181
3.069000000000002,5932.563214400221,4.981431339252693,4141170.8361994317,284.52626390152193,3148.1320949129477,44.37326485878321,2.0655144861344437,0.0048198752462124605
3.109000000000002,5920.588278124589,5.012617351419293,4137569.051820278,284.48974786724114,3150.911542422317,44.254263257909116,2.067308100850946,0.00487539702938702
3.1490000000000022,5908.765661866113,5.043819964564388,4133962.910122675,284.45316388115754,3153.691542451604,44.1353416034638,2.0690988718495107,0.004930774169797055
3.1890000000000023,5896.974068920249,5.075234944862327,4130352.4449896654,284.4165121668071,3156.4889354488655,44.01650118553129,2.0708867518532017,0.004986007128292468
3.2290000000000023,5885.279678864439,5.1067585611552175,4126737.6332693156,284.3797923686287,3159.2948275272965,43.90209358102392,2.0727885533280106,0.00504109701953
3.2690000000000023,5878.054384554585,5.121455048366433,4123118.4833847345,284.3430044510679,3160.578384032129,43.78922624108737,2.074726870091749,0.005096070200109943
3.3090000000000024,5870.526519284862,5.133148444261612,4119496.4006758896,284.3061625916958,3161.5753197074473,43.67645730943124,2.0766610837878514,0.005150919641082634
3.3490000000000024,5863.419982496177,5.144109483447674,4115870.968675643,284.2692624565396,3162.5084801394496,43.56377458469241,2.0785914127711123,0.005205650615086878
3.3890000000000025,5856.105486659473,5.15540928355296,4112242.3702603085,284.2323058063773,3163.469956582046,43.45118385726262,2.080517738073963,0.00526026148019571
3.4290000000000025,5848.929188485929,5.166486068357947,4108610.488129063,284.19529134628056,3164.4117034842293,43.33868192886862,2.0824401090748537,0.005314754035499719
3.4690000000000025,5841.698418966205,5.177654020949626,4104975.372753918,284.1582194893885,3165.360590073438,43.22627062244711,2.0843584812939207,0.0053691281526885605
3.5090000000000026,5834.519807404868,5.188738100460384,4101336.9810207835,284.12108969449855,3166.3016522812477,43.11394897016637,2.086272862413278,0.005423384765345037
3.5490000000000026,5827.333933353643,5.1998359016384965,4097695.321754548,284.08390194946685,3167.243232971233,43.00171755599391,2.088183231207645,0.005477524209706672
3.5890000000000026,5820.173414895614,5.2108932276754985,4094050.3747649346,284.0466559454536,3168.1807019746702,42.88957610395443,2.0900895825084342,0.005531547144954227
3.6290000000000027,5813.019909121017,5.2219403070927415,4090402.135835884,284.00935153612085,3169.116642777795,42.777524816219135,2.091991902286794,0.0055854540434328364
3.6690000000000027,5805.883267052858,5.2329604551907725,4086750.591746858,283.9719884825014,3170.0496313802605,42.66556363141463,2.093890181445026,0.005639245472917382
3.7090000000000027,5801.807921111085,5.243963028298328,4083095.734127383,283.9345665945924,3170.6189490930706,42.553692635328744,2.0957844081877184,0.005692921940623225
3.7490000000000028,5797.95203753404,5.255184411399946,4079437.5517792758,283.8970856528267,3171.144029400605,42.441911833693254,2.0976745722348746,0.005746483979478149
3.789000000000003,5794.147060926289,5.266113503930644,4075775.8662872342,283.8595437219835,3171.6542388022335,42.33021632204271,2.0995607538986016,0.005799933969873492
3.829000000000003,5790.3224051021725,5.277132536602522,4072110.7287283316,283.8219412168426,3172.168296642858,42.218607965310454,2.1014429083439925,0.005853271727393484
