time,thrust,OF,ox_tank.pressure,ox_tank.temperature,combustion_chamber.temperature,propellant_mass,propellant_CG,combustion_chamber.fuel_grain.geometry.length_regressed
0.007,254.75667256438985,4.090484658895933,5114793.791021979,293.62418178671385,2753.3905712152336,56.52108934736435,1.8126111453350289,1.6912463586215033e-05
0.014,1297.5725480696674,3.848854830916267,5113474.4621972665,293.61278363943126,2794.3622203137775,56.480267925284494,1.813444162333623,3.373970394616268e-05
0.021,2653.602222970092,3.791563802262662,5112240.060163534,293.6021171537886,2799.923367872584,56.44196542583878,1.8142198030571248,4.9750544705381396e-05
0.028,3746.10984144747,3.7472952098609085,5111083.735762405,293.5921235388833,2796.3051321503017,56.40598309938124,1.8149429089104392,6.499880383246237e-05
0.035,4573.680220654888,3.7133652994991824,5109995.97822499,293.58272092865883,2790.064243715995,56.37204281238196,1.8156200378798726,7.956632206268234e-05
0.042,5227.187356871521,3.68902111072544,5108966.764553808,293.57382295442966,2783.4631413047086,56.33985011995623,1.8162580225717988,9.354327060227997e-05
0.049,5727.336724034897,3.6728961854784097,5107986.270476077,293.5653448973108,2779.0262369275456,56.30911529157981,1.8168635016800436,0.0001070211834828018
0.056,6107.072122633781,3.663228496451262,5107045.396186142,293.5572082432956,2776.562730735178,56.279569068717166,1.8174425813650328,0.00012008728007670756
0.063,6401.516034381721,3.658370638889708,5106136.1167095415,293.54934372368695,2775.6760127476527,56.25097333648001,1.8180006162159037,0.00013282024895019533
0.07,6628.673053199856,3.656873030140463,5105251.614025156,293.54169246841286,2775.912724593316,56.223125333326365,1.8185421345790143,0.0001452881729106384
0.07700000000000001,6789.44367520815,3.6576192742997518,5104386.275885432,293.5342060055061,2776.893956522712,56.19585785638279,1.819070850056445,0.00015754790287536363
0.08400000000000002,6909.121950546429,3.6598346687910697,5103535.59648656,293.52684541017436,2778.3505117790605,56.16903648120003,1.819589735106303,0.00016964559083837728
0.09100000000000003,6997.930382979407,3.662951003659775,5102696.022965889,293.51957998360604,2780.0831059203806,56.14255510442938,1.8201011277513226,0.00018161793746396395
0.09800000000000003,7063.65075614834,3.6666160747505043,5101864.801924865,293.51238593047134,2781.9682141204453,56.116331437769716,1.8206068362897974,0.00019349356612560675
0.10500000000000004,7112.160812277355,3.6706107320808377,5101039.825270078,293.5052450291936,2783.9355540287143,56.09030244710565,1.8211082429395715,0.00020529449505635855
0.11200000000000004,7147.8769694884295,3.6748019890741923,5100219.4938863795,293.49814345540545,2785.9391515472457,56.06442030213685,1.8216063947576404,0.0002170374840433338
0.11900000000000005,7174.099892556361,3.6791106755374545,5099402.603270988,293.49107079456155,2787.95989885164,56.038648969201205,1.822102079497598,0.00022873518888839994
0.12600000000000006,7193.2901005962685,3.6834899055803265,5098588.250936469,293.4840192422604,2789.986071918224,56.01296144764583,1.822595886788574,0.0002403971097336425
0.13300000000000006,7207.276481233718,3.6879121445206655,5097775.763384556,293.47698297343413,2792.0120635252483,55.987337587692195,1.823088256245231,0.0002520303463532638
0.14000000000000007,7217.415752705906,3.6923611591216208,5096964.6394985635,293.46995765326494,2794.0356021146645,55.96176239759518,1.8235795146793554,0.0002636401876145289
0.14700000000000008,7224.712893361058,3.696827311511193,5096154.507250977,293.46294006307653,2796.0560855902027,55.936224748363166,1.8240699045099433,0.0002752305643849888
0.15400000000000008,7229.911516255667,3.7013048144231186,5095345.090909122,293.45592781689817,2798.073680879742,55.91071639230011,1.8245596052546853,0.0002868043936943724
0.1610000000000001,7233.561390289228,3.705790139985904,5094536.186365638,293.44891914821767,2800.0888562984114,55.88523122461496,1.8250487496787555,0.00029836383816552576
0.1680000000000001,7236.068720912961,3.7102810986112353,5093727.642675627,293.44191275036303,2802.1021514888826,55.859764730794865,1.8255374358692786,0.0003099105004265119
0.1750000000000001,7237.733500704643,3.7147763040822714,5092919.348290627,293.4349076574738,2804.114073661257,55.83431357459245,1.8260257362307473,0.0003214455681707245
0.1820000000000001,7238.777204323989,3.719274860597027,5092111.220823061,293.42790315598666,2806.125058435917,55.808875291715516,1.8265137041686446,0.0003329699220496947
0.1890000000000001,7239.363296117019,3.7237761775724154,5091303.199451145,293.42089871894706,2808.1354619731974,55.78344806257523,1.8270013790456154,0.0003444842157339266
0.22900000000000012,7239.391582336573,3.728279858400729,5090495.239291696,293.41389395733387,2809.811737431899,55.75803054394723,1.8274887898513141,0.00035598893521873254
0.26900000000000013,7229.9496607070805,3.7358183733996926,5085871.796971056,293.3737937012939,2812.5145923482664,55.612862457468914,1.8302708431292993,0.00042162065931330755
0.3090000000000001,7219.9429008525485,3.7626776629317895,5081244.350390653,293.333630629426,2822.238134578955,55.467833227629214,1.8330481109714816,0.0004870039594593364
0.3490000000000001,7215.226541227579,3.7866732651452724,5076612.116334317,293.2933978239832,2830.9407330643553,55.32291939831339,1.8358210539519761,0.0005521493812188328
0.38900000000000007,7207.34692551885,3.8140718150598723,5071978.117148824,293.2531214353702,2840.8647416888284,55.178210017244176,1.8385877009093536,0.0006170283889394991
0.42900000000000005,7201.913610103492,3.8392318996296466,5067340.467776847,293.2127849898109,2849.9840720370994,55.03364894405933,1.8413492232263726,0.0006816628802524722
0.46900000000000003,7194.828080411746,3.8661280354523737,5062700.579432586,293.172400667063,2859.724855249242,54.88927740242152,1.8441046891633057,0.0007460409742960654
0.509,7189.0409053803405,3.891857216485446,5058057.454806454,293.1319596958869,2869.045775740293,54.74506561760052,1.8468547006999052,0.0008101752812706219
0.549,7182.416993563322,3.918533026122475,5053411.8346971385,293.09146843496234,2878.704706740619,54.601034993147636,1.8495987571359176,0.0008740607383201406
0.5890000000000001,7176.500030255051,3.94461526280974,5048763.200124109,293.05092226902366,2888.149606562011,54.45716992706149,1.8523371558328763,0.0009377049576248479
0.6290000000000001,7170.169429153879,3.971229813443821,5044111.945097306,293.0103245414201,2897.78389114255,54.31348161782115,1.8550696184023059,0.0010011063311854878
0.6690000000000002,7164.237021493281,3.9975545666923575,5039457.799909954,292.9696728056426,2907.3131229040846,54.169961838564824,1.8577962848356044,0.0010642698507135444
0.7090000000000002,7158.1110955489585,4.024192763506247,5034800.97701622,292.9289688241361,2916.953295899134,54.02661647547184,1.8605169930075554,0.0011271956630445781
0.7490000000000002,7150.295561182661,4.050703209830791,5030141.337082775,292.8882112861699,2924.6190208401304,53.883441158993044,1.863231801542952,0.001189887364410873
0.7890000000000003,7140.799095839866,4.078115243012488,5025478.996843612,292.8474011194456,2932.3673810199525,53.740438995846475,1.8659406097540716,0.001252345982953825
0.8290000000000003,7132.189104198233,4.104627543849593,5020813.078323204,292.80653053812813,2939.8624428343937,53.59758425425971,1.868643933316145,0.0013145822103677693
0.8690000000000003,7123.047129589005,4.131785206913319,5016144.044467604,292.765603492345,2947.535057822071,53.45489018681893,1.8713414553434706,0.001376593554585253
0.9090000000000004,7114.3566277213295,4.158603791437258,5011471.575895072,292.7246170785159,2955.1111458199684,53.312347370886016,1.8740333436327108,0.001438385115473281
0.9490000000000004,7105.44964845897,4.185766285120846,5006795.898870266,292.68357317619814,2962.7813894688343,53.169962194865896,1.8767194296327774,0.0014999566602761569
0.9890000000000004,7096.779009622917,4.212806870454311,5002116.868922037,292.6424704124088,2970.4161625555034,53.02773034253925,1.8793997734147159,0.0015613115067297316
1.0290000000000004,7088.035025780754,4.2400461504015245,4997434.59365301,292.60130962689584,2978.104656819488,52.885654783533944,1.8820742807867394,0.0016224505129585575
1.0690000000000004,7079.427366829948,4.267265307125249,4992749.008206235,292.5600901440896,2985.786044749559,52.743733530264194,1.8847429635086779,0.0016833761580179823
1.1090000000000004,7070.811869626045,4.294615765578763,4988060.164945634,292.5188123187457,2993.502418345174,52.60196797761208,1.887405762231188,0.0017440897705450387
1.1490000000000005,7062.285597118122,4.321994717739913,4983368.035735509,292.4774757971598,3001.225230909718,52.46035721977425,1.8900626669764393,0.0018045934135407027
1.1890000000000005,7055.120649885608,4.349474010486709,4978672.646981839,292.43608070558065,3007.4161784566545,52.31890192490639,1.8927136350737364,0.001864888603633599
1.2290000000000005,7047.307054569368,4.377619149881716,4973973.987373821,292.39462683770086,3013.2746494773237,52.177601692037385,1.895358647041964,0.0019249771835217605
1.2690000000000006,7039.799839659388,4.405247707486357,4969271.410435859,292.3531083767497,3019.024366041467,52.03643805886812,1.8979980639534535,0.001984866868082908
1.3090000000000006,7032.135615893558,4.43317987938974,4964565.081089307,292.3115266605463,3024.8342413994615,51.89541574764219,1.9006317582338066,0.002044557733786402
1.3490000000000006,7024.637652420163,4.46103643347994,4959854.878944839,292.2698805071884,3030.627075656671,51.754531367585926,1.9032597736111538,0.002104052485384366
1.3890000000000007,7017.104393229399,4.489069205605553,4955140.879941114,292.2281704690389,3036.4542066998597,51.61378711930711,1.905882036775447,0.00216335198051426
1.4290000000000007,7009.661567169374,4.517120910177711,4950423.037330593,292.1863960132784,3042.2836075168084,51.47318173075408,1.9084985478432603,0.002222458184183233
1.4690000000000007,7002.229347475122,4.54529227710817,4945701.3812184995,292.1445572867129,3048.135789435418,51.332716116677396,1.9111092615731253,0.0022813723293375926
1.5090000000000008,6994.856840850198,4.573520894672056,4940975.8930042675,292.102654004458,3053.998061793305,51.19238982315272,1.9137141618703721,0.0023400960704324514
1.5490000000000008,6987.5123495637245,4.601847406539475,4936246.58429258,292.06068614887147,3059.8786952382266,51.052203258077725,1.9163132150903124,0.0023986307622113918
1.5890000000000009,6980.214818973786,4.630247394407704,4931513.447336031,292.0186535302771,3065.772733734524,50.91215629248198,1.9189063992616233,0.002456977911604688
1.629000000000001,6977.2230383738015,4.6587374964102155,4926776.486154141,291.97655606298946,3069.868169980914,50.77224913707383,1.9214936857785858,0.002515138895888948
1.669000000000001,6973.463928070239,4.687883192259835,4922035.697015655,291.9343935920502,3074.0442330078904,50.63248179315043,1.9240750508354205,0.0025731151395008167
1.709000000000001,6970.178772578151,4.7163987002044125,4917290.497761961,291.89216081201806,3078.130930222435,50.492838114897935,1.9266508057108784,0.002630913185584034
1.749000000000001,6966.761009941193,4.745402947901444,4912541.189260903,291.8498602694493,3082.2842112623484,50.353326696849756,1.9292207481538766,0.0026885316552956186
1.789000000000001,6963.571667817273,4.774261219677382,4907787.588484957,291.80749020367165,3086.4158572002857,50.21394261433865,1.9317849567088392,0.002745973458997283
1.829000000000001,6960.402963770891,4.803349115539444,4903029.797137682,291.7650513894217,3090.578058312757,50.074688897030356,1.9343433455599723,0.00280323896024768
1.869000000000001,6957.376545578108,4.832447620845906,4898267.750380565,291.72254311647106,3094.740406353344,49.93556394256105,1.93689592506956,0.002860329974150795
1.9090000000000011,6954.423419392287,4.861686316255736,4893501.480152037,291.67996553724146,3098.920886956157,49.79656884797272,1.939442650219188,0.002917247444166491
1.9490000000000012,6951.584822607483,4.890990684422044,4888730.961687819,291.6373182974324,3103.1091681128055,49.657703143594354,1.9419835086593005,0.0029739927914605065
1.9890000000000012,6948.838465127067,4.920405529412699,4883956.202850235,291.5946013336073,3107.3114631045178,49.51896727161109,1.9445184696133364,0.003030567133211217
2.0290000000000012,6940.1662334072835,4.9499060070599725,4879177.192221491,291.5518144093788,3110.6287402797334,49.38036114813764,1.9470475134635257,0.0030869717356062673
2.0690000000000013,6926.022555898378,4.9803511587096345,4874393.929230006,291.5089573847883,3113.4127437189613,49.24188499618538,1.9495706146240257,0.0031432077524985906
2.1090000000000013,6911.745373764977,5.0104625669035565,4869605.594242995,291.4660227725105,3116.160239382788,49.10351655883085,1.9520882069727572,0.003199283319602674
2.1490000000000014,6897.712059325735,5.04046672058968,4864812.005458684,291.4230087881955,3118.8970723813813,48.96525122239799,1.9546003621522543,0.003255201016667942
2.1890000000000014,6883.688648917407,5.070676047367387,4860013.230562092,291.37991588323564,3121.6508199895056,48.827091239484204,1.9571070116973703,0.00331096126826321
2.2290000000000014,6869.782464951916,5.100946750834436,4855209.222119533,291.33674347532855,3124.4088033606035,48.6890357117013,1.959608151746793,0.0033665654651194397
2.2690000000000015,6855.942694203075,5.131347463825625,4850399.985984255,291.29349145971,3127.177068281521,48.55108520822306,1.962103748792187,0.003422014528559734
2.3090000000000015,6842.191681848012,5.161847572560083,4845585.50288215,291.2501595049352,3129.9515150089655,48.413239618912165,1.964593783412772,0.0034773095767356627
2.3490000000000015,6828.5173065758945,5.1924631064010995,4840765.764791476,291.2067473798205,3132.7338982203264,48.27549914852656,1.9670782300423997,0.0035324516171149735
2.3890000000000016,6814.924146933554,5.223187641014442,4835940.757724475,291.1632547985571,3135.524675023362,48.13786384697233,1.9695570665032447,0.0035874416917949215
2.4290000000000016,6808.409152929567,5.254025275679097,4831110.470138062,291.11968149640177,3137.573840511804,48.0003338383047,1.9720302693548,0.0036422808071526944
2.4690000000000016,6805.697696142613,5.28521515544584,4826274.889293435,291.07602719687867,3139.211879031762,47.8629092216601,1.9744978158942252,0.003696969964562394
2.5090000000000017,6803.047458477564,5.316377926534761,4821433.78287651,291.032289638002,3140.8464392603687,47.725584180713405,1.9769598025968271,0.003751511955694098
2.5490000000000017,6800.5546115493735,5.347619455489254,4816587.108023822,290.9884682643081,3142.4843042588686,47.588358049998604,1.9794162219846456,0.0038059079785647903
2.5890000000000017,6798.203201742073,5.378997113103156,4811734.864407612,290.944562903519,3144.12830779735,47.45123132047649,1.9818670435092498,0.0038601588664383935
2.629000000000002,6796.00360752963,5.4104865435168445,4806877.031434629,290.9005731991016,3145.7772327931807,47.31420394422897,1.9843122476577533,0.0039142656051386225
2.669000000000002,6793.956015074399,5.442099362993982,4802013.596599587,290.8564988666057,3147.4316560499788,47.17727609861335,1.9867518105926103,0.003968229100582595
2.709000000000002,6792.06490018172,5.473832198786809,4797144.543685359,290.81233958688165,3149.091406695015,47.040447868767174,1.9891857105150532,0.004022050275448073
2.749000000000002,6790.333195990489,5.505687893745581,4792269.857636208,290.76809505019247,3150.756623727018,46.90371937846158,1.9916139250385403,0.004075730029683024
2.789000000000002,6788.472843173328,5.537666740409866,4787389.522557608,290.7237649380724,3152.39143129805,46.7670907364548,1.9940364322558568,0.004129269256926606
2.829000000000002,6779.792053271277,5.569792128314634,4782503.522534956,290.67934893073635,3153.184067100254,46.63056205838115,1.9964532102966226,0.004182668838079878
2.869000000000002,6770.434016462577,5.602541416860819,4777611.821900368,290.6348465274789,3153.984523703319,46.494132942917645,1.9988642477013232,0.004235929798286812
2.909000000000002,6761.3636646414425,5.634838945913272,4772713.953361464,290.59025329457353,3154.7741535308087,46.35779156447859,2.001269759062479,0.004289056563776249
2.949000000000002,6752.223782916548,5.667491317264266,4767810.078036872,290.5455705124289,3155.5693135881106,46.22154281039785,2.003669627525521,0.004342048539975456
2.989000000000002,6743.138572470446,5.700196176994683,4762900.113446544,290.50079724307557,3156.36542305151,46.08538511068573,2.006063864303996,0.0043949070551778414
3.029000000000002,6734.064406204947,5.733061660624464,4757984.06256941,290.455933325635,3157.164936479136,45.949319167037146,2.008452435823172,0.004447632749512323
3.069000000000002,6725.01550630311,5.766051861170187,4753061.898241152,290.410978323136,3157.9670306209023,45.813344891734374,2.0108353242289785,0.004500226489021152
3.109000000000002,6715.986770273473,5.79918039664662,4748133.603071003,290.36593188642405,3158.772014204777,45.67746246276381,2.0132125065593343,0.004552689051388352
3.1490000000000022,6706.979489882844,5.832444260870714,4743199.1560436515,290.32079363189547,3159.5798153055557,45.54167197031002,2.0155839617042783,0.0046050212312314055
3.1890000000000023,6691.064243303225,5.865845983208204,4738258.536963368,290.2755631820598,3159.851689828935,45.40597353380687,2.017949668098993,0.004657223805498857
3.2290000000000023,6673.334540712914,5.899690169522928,4733311.724992915,290.2302401521689,3160.004911952571,45.27036726353579,2.0203096044731597,0.004709297544991409
3.2690000000000023,6655.885816280018,5.933407250836851,4728358.443398148,290.1848218087302,3160.157231121026,45.13484660925626,2.0226638793458207,0.00476124516750981
3.3090000000000024,6638.576960917971,5.967311075667738,4723398.709157909,290.1393081057291,3160.3103986797287,44.999412717379684,2.0250124508276777,0.00481306711184506
3.3490000000000024,6621.430199620036,6.00135102386248,4718432.491890797,290.0936985616756,3160.464150130464,44.8640655050515,2.0273553011171996,0.004864764170367242
3.3890000000000025,6604.438485242626,6.035538390988308,4713459.769767331,290.047992771973,3160.618536287683,44.72880512041228,2.029692408004111,0.0049163370593835465
3.4290000000000025,6587.600825692773,6.069872238132857,4708480.518770116,290.00219031039074,3160.7735498196644,44.59363166270023,2.0320237503157195,0.004967786501473803
3.4690000000000025,6570.91450464353,6.104354614078562,4703494.715006387,289.95629075027153,3160.929193191599,44.4607357495313,2.034409258968998,0.005019113207973094
3.5090000000000026,6556.954368672118,6.1298911249975,4698502.333939916,289.9102936574462,3161.0192319826465,44.33160138778423,2.036889746746823,0.005070328611059083
3.5490000000000026,6547.396983736955,6.140690155661441,4693504.009217228,289.86420466761376,3161.000440633088,44.20254743502675,2.039363754115639,0.0051214463173956965
3.5890000000000026,6539.35847321105,6.152447502943795,4688500.861699005,289.81803393249425,3160.8302100949545,44.073602546941,2.0418306807681246,0.005172458180529324
3.6290000000000027,6531.143464555916,6.164352125099027,4683492.904469307,289.77178140118383,3160.6566458252582,43.94476773461064,2.0442905044127766,0.005223364369407857
3.6690000000000027,6522.99614153271,6.176081440076383,4678479.999928275,289.7254456291169,3160.4847522083655,43.81604028010946,2.046743280061232,0.005274166165260487
3.7090000000000027,6514.837004227642,6.1878317906798115,4673462.163002444,289.6790265784799,3160.3124508701135,43.68742125554866,2.0491889839340702,0.005324863709644072
3.7490000000000028,6506.684877785125,6.199546160082939,4668439.360549463,289.63252376599524,3160.1402869457143,43.55891054589801,2.0516276168509355,0.005375457495872811
3.789000000000003,6498.535877788706,6.211237491936674,4663411.57057659,289.5859368100391,3159.968142773507,43.43050831638574,2.054059173793733,0.005425947929782269
3.829000000000003,6490.390513655822,6.222903378848735,4658378.7687457185,289.5392653058572,3159.7960379875926,43.302214678664434,2.056483650818222,0.005476335429601563
