time,thrust,OF,ox_tank.pressure,ox_tank.temperature,combustion_chamber.temperature,propellant_mass,propellant_CG,combustion_chamber.fuel_grain.geometry.length_regressed
0.007,240.00252130563456,4.920210305677499,4455200.103103351,287.6224493149277,2789.4572178193935,56.09635709955085,1.86897366470225,1.2717834891775372e-05
0.014,977.3680579587239,4.635546129639473,4454220.293403108,287.6130474186137,2900.178003688897,56.06138099591159,1.8696617446351993,2.5371455194485313e-05
0.021,2116.788107396425,4.571831445478897,4453302.171630174,287.60423604461687,2929.786726871233,56.02853872276774,1.8703041536334,3.740327302274009e-05
0.028,3029.087330051789,4.526422941465384,4452441.496507604,287.59597475465426,2942.0420581878134,55.99768614929424,1.8709041715130437,4.88480301327412e-05
0.035,3733.8289209231043,4.493131924782607,4451631.244711543,287.5881963606562,2948.0477753076516,55.96858294536377,1.8714670815344174,5.977002271398227e-05
0.042,4286.402795234716,4.470290720259024,4450863.958386286,287.5808294518288,2951.576437989098,55.94097307485516,1.871998442157347,7.024029895342163e-05
0.049,4711.404907025941,4.456261027970888,4450132.388802539,287.5738045784669,2954.196380120997,55.91460698795433,1.87250361947127,8.033003809211178e-05
0.056,5050.592982455266,4.449038087623618,4449429.843820654,287.56705759496793,2956.4957115429443,55.88925373955275,1.8729875404127303,9.010659891009118e-05
0.063,5296.526442755101,4.4464750520952645,4448750.415959021,287.56053185732253,2958.631277922004,55.86470904874899,1.8734545348573022,9.96306443341263e-05
0.07,5481.637071527088,4.44705039366388,4448089.112470538,287.55417947967095,2960.640540140683,55.84079998171801,1.8739082492039691,0.00010895426202734644
0.07700000000000001,5615.422516780288,4.449554642059339,4447441.826262232,287.5479610616558,2962.5173739397205,55.81738409619529,1.8743516742817017,0.00011812083957027496
0.08400000000000002,5705.86758000668,4.453156330407602,4446805.260664658,287.5418449714186,2964.244042213896,55.79434694407165,1.8747872050948675,0.0001271655422817515
0.09100000000000003,5780.79306187384,4.457327522757876,4446176.820777654,287.5358063064253,2965.811143556118,55.77159837501614,1.8752167232153734,0.0001361162547931104
0.09800000000000003,5837.372319147704,4.461765614229468,4445554.495059041,287.52982575951074,2967.2417852357426,55.74906847023925,1.875641684952729,0.0001449947129626806
0.10500000000000004,5879.467179062678,4.4662937213984835,4444936.741107892,287.5238885243013,2968.547601069617,55.72670360036554,1.8760632055379936,0.00015381765160820082
0.11200000000000004,5910.948719455464,4.470824543527612,4444322.387252379,287.51798335173766,2969.744580290098,55.70446301874097,1.8764821312418236,0.00016259782112060115
0.11900000000000005,5934.201253023737,4.475319802315567,4443710.549444185,287.51210175307847,2970.858519681527,55.682315978858966,1.8768991000093607,0.00017134486256674788
0.12600000000000006,5951.338914300814,4.47976666339352,4443100.563988054,287.50623735460914,2971.9061854785286,55.660239398008834,1.8773145903923496,0.00018006602505855386
0.13300000000000006,5963.938250789432,4.4841653377757815,4442491.934525693,287.50038538898644,2972.902073804679,55.63821601442002,1.877728960026793,0.00018876673602149233
0.14000000000000007,5973.172451063506,4.488521474629132,4441884.290883713,287.49454230034416,2973.858101856436,55.61623295603351,1.8781424754487497,0.0001974510465116664
0.14700000000000008,5979.913184103143,4.492842399608872,4441277.357568189,287.4887054419223,2974.7837739733627,55.59428064442238,1.878555334890462,0.0002061219735568102
0.15400000000000008,5984.807341504079,4.497135311686632,4440670.929863606,287.48287284664815,2975.6865141051217,55.57235196313453,1.8789676855557909,0.00021478176060091766
0.1610000000000001,5988.334589476165,4.5014065340335465,4440064.855821507,287.4770430542283,2976.5720372431415,55.550441630939964,1.8793796366272562,0.00022343207413938877
0.1680000000000001,5990.850374037139,4.505661299851454,4439459.022753643,287.47121498146885,2977.444697396877,55.52854573184237,1.8797912690129113,0.0002320741513526544
0.1750000000000001,5992.617970147391,4.50990378835431,4438853.347139468,287.46538782536504,2978.30778705004,55.506661363928586,1.8802026426247165,0.00024070891049746644
0.1820000000000001,5993.832318509635,4.51413726122408,4438247.767104611,287.4595609908706,2979.163782566302,55.48478637770909,1.8806138017997556,0.00024933703320366104
0.1890000000000001,5994.637728354969,4.518364225066931,4437642.236826278,287.4537340371654,2980.0145392011004,55.46291918152512,1.8810247793305526,0.00025795902569172705
0.22900000000000012,5995.141010504571,4.522586585815775,4437036.722377808,287.44790663774114,2980.861442931503,55.44105859704048,1.8814355994572496,0.0002665752642370371
0.26900000000000013,5988.894296790638,4.530117218275928,4433571.354641906,287.41454483692553,2982.302265319349,55.31619009395273,1.8837815674104739,0.00031574217217204023
0.3090000000000001,5985.911624114325,4.554107658246612,4430102.636004397,287.38113113099485,2987.0548826148747,55.19140403797933,1.886125132891015,0.0003647638102636725
0.3490000000000001,5984.296191631687,4.577484413350021,4426630.8054161975,287.3476677417126,2991.6966640979695,55.06670862902945,1.8884661020625155,0.00041363873711627744
0.38900000000000007,5982.184389284733,4.602046026878456,4423156.540776388,287.31416113059623,2996.567537438255,54.942127095371234,1.8908039721869665,0.00046236085819217725
0.42900000000000005,5980.501979496466,4.6259779480990675,4419679.485978823,287.280607793366,3001.3153273053294,54.817647083501,1.8931389746140725,0.0005109351442701588
0.46900000000000003,5976.1950817102315,4.6503675734280465,4416199.873068809,287.24700989806786,3004.907667131474,54.69327645443994,1.8954709244828725,0.0005593602728139827
0.509,5970.687433782347,4.6751086034566365,4412717.561758221,287.2133660195314,3008.272076837676,54.569010303013656,1.8977999002109005,0.0006076388621463144
0.549,5965.351383603085,4.699431255383735,4409232.210771662,287.17967278562156,3011.5787779998736,54.44483690225092,1.900126120538607,0.0006557755990469476
0.5890000000000001,5959.943846713291,4.723944363079143,4405743.901800572,287.14593090864685,3014.909413691501,54.32075901538472,1.9024495063070603,0.0007037706788259744
0.6290000000000001,5954.616701467833,4.748407375868517,4402252.585428434,287.1121398332407,3018.2323529355167,54.196774935300624,1.9047700705833464,0.0007516256588133661
0.6690000000000002,5949.284935022101,4.772961826048863,4398758.290967592,287.078299765328,3021.566244485033,54.07288564641554,1.9070877714383738,0.0007993412563127681
0.7090000000000002,5943.99571122218,4.797528653502933,4395261.003449353,287.0444104820556,3024.900683825926,53.949090631978805,1.9094025980762672,0.0008469186354506318
0.7490000000000002,5938.722140621199,4.8221530032412145,4391760.732530322,287.010471998823,3028.24161461237,53.82539021893409,1.9117145226843804,0.0008943586894907383
0.7890000000000003,5933.478751893081,4.846810054772212,4388257.473816806,286.9764841946615,3031.5857757862614,53.70178426366932,1.9140235273944828,0.0009416624425574629
0.8290000000000003,5928.256957528201,4.8715143289149285,4384751.230537641,286.94244702227894,3034.935079275862,53.57827288722696,1.9163295892005479,0.0009888308257703536
0.8690000000000003,5923.061065783681,4.896258256250617,4381242.001422897,286.9083603905063,3038.288533588836,53.45485606460796,1.918632688369574,0.0010358648023773077
0.9090000000000004,5917.88821531978,4.921046649712651,4377729.7874780735,286.8742242300253,3041.6467737048974,53.331533853815294,1.9209328037451847,0.0010827652984689868
0.9490000000000004,5910.269592514101,4.9458773896584,4374214.588208934,286.8400384567091,3044.3455573388933,53.20830626828278,1.9232299153531955,0.0011295332418240819
0.9890000000000004,5900.066649564984,4.971119179324652,4370696.403727124,286.80580299207344,3046.519903425705,53.08517334779751,1.9255240029456897,0.0011761695406916
1.0290000000000004,5889.753450438511,4.996261079997184,4367174.973143207,286.7715152152844,3048.6810167958242,52.96212639384488,1.927815224760282,0.001222677708341211
1.0690000000000004,5879.607725182777,5.021289922473742,4363650.201041309,286.7371741117631,3050.83191973203,52.839162302665684,1.930103624769228,0.0012690595529801865
1.1090000000000004,5869.471038965119,5.046441132458037,4360122.127388031,286.70277998460836,3052.992078272242,52.71628251734182,1.9323891544015956,0.0013153155085170619
1.1490000000000005,5859.419161590463,5.071603838551141,4356590.729562722,286.66833252689077,3055.1523594857003,52.59348639099737,1.9346718079393972,0.0013614466237762237
1.1890000000000005,5849.4143905276205,5.096832966192603,4353056.015337959,286.6338317276146,3057.3172875546857,52.47077429869714,1.936951559071896,0.001407453632168736
1.2290000000000005,5839.474070056038,5.122102266084762,4349517.977468521,286.5992774289767,3059.484702175866,52.34814611986122,1.9392283918081656,0.001453337404697691
1.2690000000000006,5829.588937997028,5.147425088667573,4345976.615781665,286.56466954186,3061.65570253821,52.22560197527621,1.9415022854683874,0.0014990987306776782
1.3090000000000006,5819.762575689698,5.1727955191101636,4342431.926464014,286.53000794125387,3063.8298025902423,52.10314187013678,1.943773221941456,0.001544738423970887
1.3490000000000006,5809.992400684009,5.1982169885325495,4338883.907245898,286.49529251688506,3066.0072848930977,51.980765866441196,1.9460411821760581,0.0015902572720331736
1.3890000000000007,5800.278798865389,5.223688406256819,4335332.554902585,286.4605231487905,3068.1880601606254,51.85847399995066,1.948306147863474,0.001635656060648908
1.4290000000000007,5795.325321157969,5.2492108629445475,4331777.866458351,286.4256997190867,3069.830873144889,51.736266320068,1.950568100623991,0.0016809355623130118
1.4690000000000007,5793.451205781052,5.275108851471923,4328219.838610762,286.3908221063301,3071.098722504607,51.61414287072872,1.9528270223905633,0.0017260965420175757
1.5090000000000008,5791.505200920348,5.300905528236932,4324658.248512932,286.3558880346315,3072.358702910425,51.492096481496,1.9550830411544684,0.0017711418630847774
1.5490000000000008,5789.677142036762,5.326644569021221,4321093.029921214,286.3208967598814,3073.6155584819553,51.370125173993365,1.9573361797596007,0.0018160728495494386
1.5890000000000009,5787.920986141739,5.352488911482086,4317524.2065257,286.28584841953676,3074.876766456836,51.248229936056546,1.9595864012294766,0.0018608899492739406
1.629000000000001,5786.256469509069,5.378367643773489,4313951.761250688,286.2507427505966,3076.1390471494037,51.1264104206941,1.9618336957511793,0.0019055939915784967
1.669000000000001,5784.677424738577,5.404310697904522,4310375.6936801905,286.2155796531927,3077.4037839862317,51.00466683310395,1.9640780425340494,0.0019501856366745491
1.709000000000001,5783.188159283269,5.430306338301903,4306795.996359076,286.1803589578504,3078.6704331577107,50.88299915308111,1.9663194255097953,0.001994665602279108
1.749000000000001,5781.788846538222,5.456359934435819,4303212.664501888,286.145080520885,3079.939241926064,50.761407453035694,1.968557826911693,0.002039034571300738
1.789000000000001,5780.481369945458,5.482469867600104,4299625.69203591,286.1097441854891,3081.2101343181675,50.639891768539506,1.9707932298815107,0.0020832932295228807
1.829000000000001,5779.277354395408,5.508637361874752,4296035.07320819,286.07434979753623,3082.4830512097687,50.51845215077606,1.9730256174095118,0.0021274422505411766
1.869000000000001,5778.160851013354,5.534862376019371,4292440.801937501,286.0388971991948,3083.7556751468014,50.39708864538261,1.9752549727572033,0.002171482301999578
1.9090000000000011,5772.193853706794,5.5611428922323265,4288842.872151004,286.00338623223956,3084.3817306902406,50.275801303369526,1.977481279234705,0.0022154140425649214
1.9490000000000012,5765.478484338782,5.587869571346825,4285241.27932066,285.9678167532276,3084.972456595093,50.15459023071473,1.9797045192042408,0.0022592381078777564
1.9890000000000012,5758.932419679311,5.614231208982538,4281635.767720535,285.932186135087,3085.555472423456,50.03344743186712,1.9819248373933906,0.002302957438394398
2.0290000000000012,5752.349826175199,5.640799687445483,4278026.415484388,285.8964950464406,3086.142507071503,49.912375723883976,1.984142161821219,0.0023465718703638565
2.0690000000000013,5745.799888036349,5.667380070063671,4274413.186504336,285.86074302676076,3086.729554002518,49.79137423653827,1.986356494536655,0.00239008228744446
2.1090000000000013,5739.2591586221215,5.694038968730478,4270796.0831340635,285.82492999519235,3087.317981861181,49.670443345798404,1.9885678127756368,0.0024334892109474137
2.1490000000000014,5732.735173337916,5.72075453592483,4267175.094614926,285.78905574063464,3087.9073391737174,49.549583010195704,1.9907761022604282,0.002476793274469683
2.1890000000000014,5726.225182016803,5.747534630232494,4263550.214369547,285.75312009282305,3088.4977863530144,49.428793327767806,1.9929813460576542,0.0025199950654302633
2.2290000000000014,5719.729830007463,5.774377205509921,4259921.434244224,285.717122865325,3089.089279549343,49.308074350906665,1.995183528275646,0.0025630951777843697
2.2690000000000015,5713.248654206688,5.8012834967062075,4256288.7464133315,285.68106387439695,3089.6818426331974,49.18742614748392,1.997382632841373,0.0026060941947819776
2.3090000000000015,5706.781555279925,5.82825366121444,4252652.142754606,285.64494293278483,3090.275477190249,49.06684878081427,1.999578643897594,0.0026489926947355835
2.3490000000000015,5695.700472980148,5.855288209554448,4249011.615053346,285.6087598517421,3090.55569250075,48.946342316178395,2.001771545670311,0.002691791249269803
2.3890000000000016,5681.714042801096,5.882563996685499,4245367.154936831,285.5725144403711,3090.6456601810173,48.82590681871616,2.0039613225082626,0.0027344904240069537
2.4290000000000016,5667.851579494309,5.909811829419915,4241718.644220735,285.5362054140204,3090.7343577256374,48.70553887655373,2.006148027819276,0.002777091750964765
2.4690000000000016,5654.171923070764,5.937075946574888,4238066.049022031,285.4998323243858,3090.823210931683,48.58523777378465,2.008331661466091,0.002819595996718729
2.5090000000000017,5640.624525114862,5.96442916165892,4234409.372464698,285.4633950907821,3090.9122797473065,48.46500397411817,2.0105122000183924,0.0028620035918659075
2.5490000000000017,5627.222967410696,5.991843554157356,4230748.60112031,285.4268934671149,3091.0014970777897,48.34483742134494,2.012689630462788,0.0029043151068008284
2.5890000000000017,5613.960603052195,6.019327900387858,4227083.726375221,285.3903272546036,3091.090885644484,48.22473821666198,2.01486393677282,0.002946531062429611
2.629000000000002,5600.836332534553,6.0468804263023115,4223414.738135299,285.3536962390616,3091.1804384101947,48.10470641940108,2.0170351038539254,0.0029886519858731814
2.669000000000002,5587.847682893999,6.0745021363165455,4219741.626498835,285.3170002075634,3091.2682794138254,47.98474209990042,2.0192031164948983,0.003030678395812621
2.709000000000002,5574.991472670493,6.10219411940111,4216064.381334418,285.280238944226,3091.3552477965113,47.86484532618091,2.021367959629173,0.003072610806272626
2.749000000000002,5562.266568167512,6.129955624137852,4212382.991911963,285.24341222650577,3091.4423714529594,47.74501615242003,2.023529618559263,0.0031144497298690368
2.789000000000002,5557.572551243492,6.157787358435243,4208697.447736437,285.20651983352354,3091.2995543647894,47.625254645119355,2.0256880784388924,0.0031561956706463528
2.829000000000002,5557.700321249477,6.185804419584452,4205007.738300366,285.16956154358877,3091.015107334468,47.50556087528629,2.0278433244256298,0.0031978491263280153
2.869000000000002,5557.957112240274,6.213835519851669,4201313.784437821,285.1325364459194,3090.729913392962,47.38593278042345,2.0299953836261433,0.003239411174913107
2.909000000000002,5558.402351654919,6.241902969919207,4197615.557666412,285.0954441357367,3090.4446184690046,47.26636989286598,2.0321442518103696,0.0032808824486983412
2.949000000000002,5559.035439111801,6.2700582554648205,4193913.0550292,285.0582844633482,3090.1585929527614,47.14687254580381,2.0342899091101643,0.0033222633551950975
2.989000000000002,5559.8619091735745,6.298283246972936,4190206.2626241557,285.021057168593,3089.8720237284215,47.02744073644237,2.036432342332969,0.003363554389351787
3.029000000000002,5560.88785562913,6.326582984906417,4186495.169199293,284.98376201714706,3089.5848608613383,46.9080745494079,2.038571536653229,0.0034047560174689127
3.069000000000002,5562.119255566409,6.354957042217188,4182779.762781414,284.946398766693,3089.2971062871447,46.78877405190403,2.04070747766574,0.0034458687059852116
3.109000000000002,5563.562456790986,6.383406025303857,4179060.031338143,284.90896717355656,3089.0087528172735,46.669539314281465,2.0428401509809224,0.0034868929159144455
3.1490000000000022,5565.224048698106,6.411930390704741,4175335.9626748525,284.87146699166203,3088.7197944646714,46.55037040684907,2.044969542285407,0.003527829103779022
3.1890000000000023,5567.110906505114,6.440530610290164,4171607.5444450127,284.8338979726269,3088.430225165175,46.431267400205655,2.047095637333748,0.0035686777215808807
3.2290000000000023,5561.76356624236,6.469207158864384,4167874.764150168,284.7962598657523,3087.8860797029947,46.31223036524841,2.0492184219464944,0.0036094392168595606
3.2690000000000023,5555.803091091114,6.4980619553448875,4164137.609139138,284.7585524180053,3087.319485694243,46.193259373160885,2.0513378820086707,0.0036501140327547823
3.3090000000000024,5549.876829247182,6.526890900236573,4160396.0080647725,284.7207747827204,3086.753748762226,46.07435270511935,2.053454038195919,0.003690703090296345
3.3490000000000024,5543.959461832986,6.5558224721945955,4156649.9629829307,284.68292685270325,3086.1863647000064,45.9555109002611,2.0555668673493908,0.0037312066959441703
3.3890000000000025,5538.054321230228,6.58482892521434,4152899.4581588963,284.6450083404162,3085.617839369331,45.83673395739936,2.0576763568715357,0.0037716252979232818
3.4290000000000025,5532.161239493856,6.613914730779899,4149144.480463534,284.607018983788,3085.048096142802,45.718021960155326,2.0597824925812964,0.0038119593175226147
3.4690000000000025,5526.280394214409,6.643080241099901,4145385.0164361554,284.5689585165522,3084.4751320070927,45.59937498704853,2.0618852604578204,0.0038522091733957046
3.5090000000000026,5520.410373445661,6.672327010286588,4141621.0524034314,284.53082666943624,3083.8997824715184,45.480793115163465,2.063984646567553,0.0038923752806222633
3.5490000000000026,5514.551398265195,6.7016540934746,4137852.5738903675,284.49262316417605,3083.323183344019,45.36227640234997,2.0660806374054896,0.003932458055505313
3.5890000000000026,5508.703866994485,6.731061971375808,4134079.5665896265,284.45434772332015,3082.7453323614955,45.24382491670106,2.0681732193240885,0.003972457907729273
3.6290000000000027,5499.621455016962,6.7605516603016165,4130302.016292409,284.41600006952837,3082.055824803772,45.125438734400916,2.070262378574145,0.004012375241004122
3.6690000000000027,5487.843936072057,6.790156052164898,4126519.908535269,284.37757992198135,3081.2715957039577,45.00711792904248,2.0723481015092826,0.004052210455968052
3.7090000000000027,5476.103211635229,6.8198353459916286,4122733.210516966,284.33908681248187,3080.4855377682584,44.88886202797981,2.0744303850138786,0.004091964094363605
3.7490000000000028,5464.424800754952,6.849578366948551,4118941.898026295,284.3005203588224,3079.6982975169853,44.77067082526574,2.076509220863683,0.004131636622762078
3.789000000000003,5452.796498663181,6.879411705978343,4115145.9598729396,284.26188031019524,3078.909147113381,44.65254451217949,2.07858459325458,0.004171228398671679
3.829000000000003,5441.220310085059,6.909328326020423,4111345.380251978,284.22316636794005,3078.118264552769,44.53448314634835,2.0806564889943124,0.004210739811499746
