time,thrust,OF,ox_tank.pressure,ox_tank.temperature,combustion_chamber.temperature,propellant_mass,propellant_CG,combustion_chamber.fuel_grain.geometry.length_regressed
0.007,237.64563207259098,5.124273873203599,4007024.108723211,283.1499468386683,2809.3450185085794,56.93179968790383,1.8716561778193257,1.1504400270768523e-05
0.014,925.7291447778745,4.789848944405108,4006215.9939631727,283.14155245330835,2926.213788865332,56.89824319286855,1.8723033860723364,2.295403656635539e-05
0.021,2021.4248574124888,4.678520106692508,4005464.4450355326,283.1337445211301,2955.9768922883077,56.86693254549164,1.872902231034637,3.385639685813888e-05
0.028,2893.084162109325,4.5901237612764145,4004765.6784791294,283.1264839732645,2964.3913541718516,56.83772158021835,1.8734561231733007,4.423633933611451e-05
0.035,3559.4357385630224,4.519975224131003,4004113.169416246,283.11970321359274,2963.9454567996727,56.81035495538097,1.8739707548991331,5.414772435263132e-05
0.042,4070.6200837778215,4.466739620133276,4003499.820955399,283.1133286542697,2961.7553598849845,56.784553449817295,1.874452248754155,6.365359654058015e-05
0.049,4457.200456384083,4.428120117270952,4002918.662298932,283.10728797455823,2959.506840073347,56.760041600395496,1.8749065694110791,7.281926954148708e-05
0.056,4746.4053988552205,4.401531060212853,4002363.300142614,283.10151481903347,2957.847329937444,56.73656583023682,1.8753391519110298,8.170719493671279e-05
0.063,4981.129619855345,4.383966500403641,4001828.142461094,283.0959511310868,2956.8377879479463,56.71390365560049,1.8757547247754387,9.037384895288375e-05
0.07,5141.362232341723,4.372938000694522,4001308.523134615,283.0905484555896,2956.3651323454583,56.69186896705434,1.8761572167688356,9.88675970695241e-05
0.07700000000000001,5258.588670320967,4.36650645104702,4000800.677669998,283.0852676928493,2956.2929440487674,56.67031132228195,1.8765497866597947,0.00010722825232167749
0.08400000000000002,5344.230462809131,4.3632222303438635,4000301.6459218515,283.08007809247306,2956.496306742004,56.6491122469086,1.8769349115084892,0.00011548760573994377
0.09100000000000003,5406.569210239284,4.362069932734217,3999809.14840236,283.07495597144907,2956.8801190838276,56.62818040843983,1.8773144946726015,0.0001236704223075507
0.09800000000000003,5451.799227930553,4.362359252918608,3999321.45758219,283.0698833790883,2957.3776776458217,56.60744653592192,1.877689976156839,0.00013179563127514268
0.10500000000000004,5484.515311942081,4.363627757838902,3998837.2798889875,283.0648468723199,2957.940412876804,56.58685873208364,1.8780624327630098,0.00013987749551671891
0.11200000000000004,5508.101588321038,4.365566896508178,3998355.6553306296,283.0598364735676,2958.5495181208726,56.566378469948496,1.8784326627309726,0.00014792664763974386
0.11900000000000005,5525.041632604875,4.3679692674015085,3997875.876144726,283.05484482595773,2959.1875604379748,56.545977339985335,1.8788012540343453,0.0001559509519191918
0.12600000000000006,5537.150614975257,4.370694841098505,3997397.4230877324,283.0498665315854,2959.8439834024143,56.52563449828584,1.8791686377015617,0.0001639561911580278
0.13300000000000006,5545.751781311663,4.373647875958187,3996919.916568536,283.0448976438841,2960.5123056662874,56.50533470712273,1.8795351286201305,0.00017194659980405194
0.14000000000000007,5551.807960951312,4.376762200378852,3996443.079803388,283.03993528482357,2961.1884892932007,56.48506685646811,1.879900956250821,0.00017992526920521416
0.14700000000000008,5556.018780020851,4.379991622544111,3995966.7113491804,283.03497735950964,2961.869972630098,56.464822861342626,1.8802662874943725,0.0001878944514112173
0.15400000000000008,5558.892111232547,4.3833036207929394,3995490.6647940427,283.030022345131,2962.5550985313916,56.44459684628621,1.880631243582508,0.00019585578467301094
0.1610000000000001,5560.79636889687,4.386675136894806,3995014.8338275524,283.025069135794,2963.2427741531706,56.42438454577919,1.8809959124846845,0.00020381045963978873
0.1680000000000001,5561.998668502457,4.390089731148622,3994539.1413115347,283.0201169289244,2963.932265908229,56.40418286531747,1.8813603579843032,0.00021175934122830318
0.1750000000000001,5562.692610762175,4.393535632101969,3994063.5313034123,283.0151651423498,2964.623073692433,56.38398956108422,1.8817246262991738,0.00021970305766211493
0.1820000000000001,5563.018479287629,4.397004383350652,3993587.963247166,283.01021335390914,2965.3148521409894,56.36380300669086,1.8820887509005673,0.00022764206535457065
0.22200000000000011,5563.077906672195,4.400489895061561,3993112.4077493316,283.0052612575357,2966.0073602540942,56.34362202359041,1.8824527560157884,0.00023557669610022925
0.2620000000000001,5556.9178121125715,4.407169580735416,3990390.9666823708,282.9769136650371,2967.2729702107094,56.228341702107514,1.8845317647184843,0.00028086482158053535
0.3020000000000001,5552.870935278034,4.426852756106271,3987666.6772534405,282.9485219946279,2971.1391349712894,56.113113396905106,1.8866095361533337,0.000326046606979568
0.3420000000000001,5549.377355889009,4.446780710364117,3984940.09750783,282.9200920049339,2975.0580643131425,55.997959371534066,1.8886855946581018,0.0003711166191228594
0.38200000000000006,5545.661097714508,4.467198588079339,3982211.466574216,282.891626138388,2979.0706614267674,55.88288911206773,1.890759728392288,0.0004160729833970875
0.42200000000000004,5542.143353256291,4.487360560718029,3979480.660972969,282.86312305664245,2983.0332206043827,55.76789768268833,1.8928320226921398,0.00046091780085669507
0.462,5538.520719861332,4.50775503960582,3976747.773303569,282.8345836756611,2987.0395167848974,55.65298873295038,1.8949023863862133,0.0005056507978086528
0.502,5535.004780315434,4.5280360102841755,3974012.741814441,282.80600730013344,2991.0231275016517,55.53815979484068,1.896970854360535,0.0005502733748791735
0.542,5531.447161004825,4.548447352484419,3971275.6127117034,282.77739436213136,2995.030853285735,55.42341268013166,1.8990373736718782,0.0005947857492247296
0.5820000000000001,5527.951330866208,4.5688179541951985,3968536.3563483707,282.7487445010302,2999.029876490139,55.30874620446458,1.9011019531576476,0.0006391889508336464
0.6220000000000001,5524.444691503218,4.589268601840788,3965794.99607929,282.7200579102052,3003.0433583003605,55.194161280809624,1.9031645587388282,0.000683483427880377
0.6620000000000001,5520.977680011545,4.609714884915773,3963051.517992189,282.69133439311923,3007.055124292838,55.079657356082365,1.9052251866308032,0.0007276700208320349
0.7020000000000002,5517.514812608592,4.630216560750835,3960305.934115155,282.662574024597,3011.07662511718,54.965234902755064,1.907283812168197,0.0007717492828133016
0.7420000000000002,5513.228520410285,4.650732149015087,3957558.2381846053,282.6337766878291,3013.837313547079,54.850893677570426,1.9093404255489665,0.0008157219539219748
0.7820000000000003,5508.3949862170675,4.671734533457544,3954808.436585614,282.60494239839977,3016.651880277369,54.73663393781636,1.9113950068728915,0.0008595886307446933
0.8220000000000003,5503.906117870299,4.692199620912463,3952056.2650913848,282.57606833206773,3019.3958123888992,54.622445362907996,1.9134477531093004,0.0009033527574528008
0.8620000000000003,5499.21387663387,4.713060394910325,3949301.884382105,282.5471561200275,3022.190294438216,54.50833428337527,1.9154985200616517,0.0009470132649775232
0.9020000000000004,5494.6796030154155,4.7337154693848555,3946545.188828373,282.51820459924335,3024.957367481161,54.39429661530357,1.9175473770735585,0.0009905718899280943
0.9420000000000004,5490.0661816151,4.75456263716732,3943786.248456702,282.4892144504467,3027.748584625731,54.280335140609836,1.9195942530320034,0.0010340285109147333
0.9820000000000004,5485.528607672033,4.775340386661082,3941025.01783324,282.4601851415766,3030.5300724574477,54.16644814037011,1.921639169113044,0.0010773842109486132
1.0220000000000005,5480.965220459028,4.796221224810227,3938261.5271235965,282.43111693483775,3033.324168749024,54.0526368443907,1.9236820863075872,0.0011206392741433637
1.0620000000000005,5476.442154323226,4.8170922670100635,3935495.756830926,282.40200957015304,3036.1162651014683,53.93890055384986,1.92572300519914,0.0011637944951596556
1.1020000000000005,5471.915981671654,4.838028061109349,3932727.7198222843,282.3728631277335,3038.916007196004,53.82523983070038,1.9277619007430498,0.001206850324614762
1.1420000000000006,5467.414735264699,4.858980204101266,3929957.4076808505,282.3436774636326,3041.7171373263886,53.71165441453721,1.9297987648410035,0.0012498074264424353
1.1820000000000006,5462.920005839437,4.879980849105191,3927184.825754109,282.31445257868734,3044.522778377247,53.598144581568626,1.931833578575844,0.0012926663150877513
1.2220000000000006,5458.443240768762,4.901009679372416,3924409.970285883,282.28518837766404,3047.330602717101,53.484710259103835,1.9338663302909989,0.0013354275916655253
1.2620000000000007,5453.9767253501095,4.92208019549813,3921632.8431809843,282.25588482484,3050.1430721364413,53.37135159645935,1.9358970039359573,0.0013780917921177621
1.3020000000000007,5449.661861243109,4.943183917334003,3918853.442574105,282.2265418445663,3052.430882075165,53.258068600752026,1.9379255864938234,0.001420659484067013
1.3420000000000007,5444.805461029901,4.964922052872183,3916071.769025996,282.1971593866293,3054.266071344952,53.14486137577739,1.939952063108541,0.0014631312035599919
1.3820000000000008,5439.67059800765,4.98654635666556,3913287.487050296,282.1677338482366,3056.0865397126277,53.03171714318463,1.9419766811918708,0.0015055108739439045
1.4220000000000008,5434.690658174397,5.007921935304499,3910500.4596858416,282.1382637186991,3057.886284931564,52.91863080132569,1.9439995316228937,0.001547800371112505
1.4620000000000009,5429.646960698271,5.029497220852279,3907710.757655631,282.10874968188045,3059.701543908076,52.80560522187606,1.946020543101578,0.0015899994632335211
1.502000000000001,5424.655685363263,5.051031227152579,3904918.33954148,282.07919123568445,3061.512841869826,52.692638982439654,1.9480397318036717,0.0016321090434698576
1.542000000000001,5419.6549248819165,5.072653247832821,3902123.223609651,282.0495885091733,3063.3306233645044,52.579732948008875,1.9500570675044229,0.0016741293986650319
1.582000000000001,5414.677261528776,5.094294825537207,3899325.396242605,282.0199412936833,3065.1493598801053,52.46688676850632,1.9520725447845297,0.0017160611292562874
1.622000000000001,5409.7052777893805,5.115992838119381,3896524.860610176,281.99024955808216,3066.9720281275945,52.35410073780098,1.9540861452522984,0.0017579046619451153
1.662000000000001,5404.747949580625,5.137728201489973,3893721.610867575,281.96051317546613,3068.7970877239836,52.241374809550976,1.9560978575299723,0.001799660507369019
1.702000000000001,5399.800360810296,5.159511486704111,3890915.6457995772,281.9307320677551,3070.6253910645273,52.128709116871825,1.9581076667030086,0.0018413291243796319
1.742000000000001,5394.864892608251,5.18133759174743,3888106.9616251807,281.9009061293936,3072.4565263035483,52.016103698648244,1.960115559871067,0.0018829109915122055
1.7820000000000011,5389.940106976514,5.2032096776886325,3885295.555783394,281.87103526751105,3074.2907478257534,51.90355864330877,1.962121523230836,0.001924406569609597
1.8220000000000012,5385.026563568072,5.225126561535279,3882481.4249475226,281.84111938084055,3076.1279598174706,51.79107401349773,1.9641255436009968,0.0019658163214772025
1.8620000000000012,5380.276235627133,5.2470893393529305,3879664.5660650646,281.8111583707595,3077.509236508385,51.67864988544609,1.966127607623037,0.002007140701729487
1.9020000000000012,5375.4911270126195,5.269245695117808,3876844.975815454,281.7811521355239,3078.5654853190726,51.566286328452264,1.9681277021750159,0.002048380162173785
1.9420000000000013,5370.679066421972,5.291382728952277,3874022.571584744,281.7510997285861,3079.6195657557914,51.453980434382686,1.9701258743634165,0.0020895359163987256
1.9820000000000013,5365.896136248717,5.313528546897072,3871197.332690449,281.7210008612623,3080.6737211152495,51.34173163995894,1.9721221239202136,0.0021306085660342095
2.022000000000001,5361.116332272193,5.335742561496585,3868369.2647413053,281.69085552450684,3081.730587600638,51.22954037419808,1.9741164306199677,0.0021715984527169844
2.062000000000001,5356.352089897819,5.357994773951265,3865538.3592781555,281.6606635591181,3082.788823975764,51.117406540735246,1.9761087849344374,0.0022125060489510697
2.102000000000001,5351.597238225353,5.380300311398265,3862704.6145830257,281.63042487744286,3083.8491057913798,51.00533029930632,1.978099172253779,0.002253331757227076
2.1420000000000012,5346.854600173676,5.402652305677941,3859868.0255452637,281.6001393553442,3084.911125453264,50.89331168570082,1.9800875805534308,0.002294076007646043
2.1820000000000013,5342.122668685496,5.4250545628215185,3857028.588570831,281.56980688455974,3085.9750524043607,50.78135079559827,1.9820739966854433,0.0023347392108562233
2.2220000000000013,5337.4020178934825,5.4475057276324845,3854186.299212585,281.5394273474091,3087.040825415687,50.669447695946985,1.9840584081631247,0.002375321780788447
2.2620000000000013,5332.692445866818,5.4700069340850055,3851341.153311022,281.5090006289703,3088.1061715077585,50.55760246755217,1.986040802301804,0.0024158241238292533
2.3020000000000014,5327.99252454926,5.492559389577278,3848493.146447493,281.47852661123443,3089.173371042574,50.445815184682786,1.9880211666279557,0.0024562466440775734
2.3420000000000014,5323.303951838153,5.5151608748235965,3845642.2735464135,281.44800516883686,3090.242409737151,50.334085900373566,1.989999489172522,0.0024965897471091393
2.3820000000000014,5318.598066015333,5.537813774233448,3842788.5303932023,281.41743618530086,3091.2759315420253,50.22241470273612,1.9919757573383798,0.00253685382574043
2.4220000000000015,5313.470144837235,5.560542649723217,3839931.9122523563,281.38681953824613,3091.7626962485183,50.110801663645304,1.9939499589301166,0.002577039273111044
2.4620000000000015,5307.988073189548,5.583664789003531,3837072.4015301396,281.3561549670338,3092.2531351395664,49.999246383715686,1.995922091270237,0.0026171465974784347
2.5020000000000016,5302.678411053021,5.606432678542081,3834209.8093329524,281.3254403718901,3092.736885223786,49.88774215915777,1.9978922779888655,0.00265717789050877
2.5420000000000016,5297.308751792432,5.62943950713139,3831344.217153983,281.2946765518869,3093.2250734800855,49.77629227464362,1.9998604425325224,0.002697132717946329
2.5820000000000016,5291.976560160951,5.6524219029816525,3828475.58256376,281.26386297630927,3093.7126757508427,49.66489544765935,2.001826599928468,0.0027370117937539503
2.6220000000000017,5286.641155047761,5.675491418428986,3825603.915380529,281.2329996748828,3094.2018245973964,49.553552323036534,2.0037907266763977,0.002776815343095973
2.6620000000000017,5281.319220132624,5.69860199152759,3822729.203514544,281.2020864416761,3094.691637476842,49.442262743130485,2.0057528154006015,0.002816543789461419
2.7020000000000017,5276.00374192086,5.721773234871759,3819851.443837671,281.1711231666776,3095.182489391951,49.33102688254298,2.007712852145024,0.002856197469531902
2.7420000000000018,5270.697452603271,5.744997538663308,3816970.6294023977,281.14010969843025,3095.6742336406055,49.21984477899605,2.0096708257524756,0.00289577675095012
2.782000000000002,5265.3990972340125,5.7682785264817875,3814086.754708784,281.10904590066394,3096.166938965541,49.108716526374884,2.0116267240059704,0.0029352819839912666
2.822000000000002,5260.109046675077,5.791615210406621,3811199.813544151,281.0779316290479,3096.660585580916,48.997642195666586,2.013580535206419,0.002974713521386793
2.862000000000002,5254.827014109229,5.815008489280519,3808309.7998651178,281.04676674068145,3097.155189937951,48.886621867195544,2.0155322475281845,0.0030140717103123073
2.902000000000002,5249.533580651496,5.838458496119708,3805416.7074391907,281.0155510902292,3097.649384966753,48.775655617547706,2.017481849278761,0.003053356895690481
2.942000000000002,5238.2148342079545,5.861966535767212,3802520.52998977,280.9842845314792,3097.715035997955,48.6647435248557,2.0194293287923295,0.0030925694189146737
2.982000000000002,5226.675647689997,5.88580172842701,3799621.2607115842,280.952966912104,3097.7783508661864,48.553885651255115,2.0213746747773618,0.0031317096222326733
3.022000000000002,5215.4226004925695,5.909397328288147,3796718.7596132196,280.92159663947274,3097.8416312538197,48.44307724908024,2.0233179714974217,0.0031707790333630513
3.062000000000002,5204.201737723278,5.933175986651149,3793813.078446391,280.8901741913919,3097.905198003959,48.332320521407404,2.0252591650920837,0.00320977745497207
3.102000000000002,5193.106579162862,5.956968950531073,3790904.188349267,280.8586991741652,3097.968835658363,48.22161475739402,2.027198259645454,0.00324870540781753
3.142000000000002,5182.102080840424,5.98083809537693,3787992.089917409,280.82717151213143,3098.032630539758,48.11096031389078,2.029135238093685,0.003287563145908998
3.182000000000002,5171.198631448423,6.004762011221207,3785076.7731740247,280.7955910148186,3098.096550798924,48.00035716953717,2.0310700909265336,0.003326351013702895
3.222000000000002,5160.390860125576,6.028748699220357,3782158.2317220545,280.76395753005124,3098.1606077914184,47.88980543520079,2.0330028060605865,0.0033650693202289697
3.2620000000000022,5149.6788568951,6.05279588646799,3779236.457799805,280.7322708904216,3098.222688585707,47.77930517591799,2.034933372368068,0.0034037183829848223
3.3020000000000023,5139.059677308946,6.076905865996771,3776311.443994205,280.7005309318417,3098.284240180924,47.66885647251144,2.036861778455224,0.003442298512813643
3.3420000000000023,5128.533597112583,6.10107693204362,3773383.182167368,280.6687374818934,3098.3459183773844,47.55845938315174,2.0387880134213687,0.0034808100233574796
3.3820000000000023,5118.099034635597,6.125310448164284,3770451.664676476,280.63689037306017,3098.407727082616,47.448113987028506,2.0407120659947475,0.0035192532203954514
3.4220000000000024,5111.6931420308865,6.149606645439821,3767516.883704305,280.6049894354605,3098.349726799703,47.33782036036854,2.042633925005858,0.0035576284077560743
3.4620000000000024,5111.824991383887,6.1740328462984575,3764578.831359718,280.5730344979338,3098.092956396771,47.22757858004103,2.044553579315304,0.0035959358864670185
3.5020000000000024,5112.019726884185,6.19856087941001,3761637.467714307,280.5410250400929,3097.834110340195,47.117387589195914,2.0464710401427495,0.003634176230458683
3.5420000000000025,5112.356465960442,6.223062256712753,3758692.7453086325,280.50896045823174,3097.5758722272403,47.00724607431032,2.048386323731242,0.0036723500718608107
3.5820000000000025,5112.827789013286,6.247665052770326,3755744.673034562,280.47684076128985,3097.3166787788805,46.897154727458876,2.05029940686061,0.003710457552342034
3.6220000000000026,5113.438919163603,6.272321497096084,3752793.2366110696,280.4446657054469,3097.0570712309695,46.78711342168276,2.0522102824713047,0.003748499010124365
3.6620000000000026,5114.193580137444,6.2970471892109705,3749838.429116911,280.4124351265287,3096.7968770803977,46.67712229422937,2.0541189383438043,0.003786474716830501
3.7020000000000026,5115.095756103983,6.321838049949468,3746880.241317657,280.3801488346346,3096.5361403856405,46.56718140387505,2.056025363837454,0.0038243849606647224
3.7420000000000027,5116.14962271279,6.346695757500841,3743918.6645173314,280.34780664521213,3096.274842623723,46.457290831815996,2.0579295479067325,0.003862230021991756
3.7820000000000027,5117.35948485565,6.371620361898046,3740953.6897470993,280.3154083702034,3096.0129828374565,46.347450653023884,2.059831479662961,0.0039000101802973606
3.8220000000000027,5118.729824493318,6.396612367056219,3737985.307990343,280.2829538204955,3095.7505552148314,46.237660944198254,2.061731148217387,0.003937725712293939
3.8620000000000028,5120.265291436771,6.421672155733273,3735013.5101208254,280.2504428052395,3095.4875552421518,46.1279217816025,2.0636285427227903,0.003975376892470153
