time,thrust,OF,ox_tank.pressure,ox_tank.temperature,combustion_chamber.temperature,propellant_mass,propellant_CG,combustion_chamber.fuel_grain.geometry.length_regressed
0.007,239.35974677545755,5.23062254912537,4327398.12990506,286.38276424035547,2724.3012127994016,56.21537358217175,1.8285978194090136,1.2234428333935029e-05
0.014,923.2437693551616,4.930861866076665,4326463.125106169,286.37359397091444,2845.532236538887,56.18066901858836,1.8293002879201323,2.4405763893397672e-05
0.021,2017.9387259309196,4.863901030322968,4325586.549564153,286.3649954097059,2881.0254037184473,56.148072918939334,1.8299566709270616,3.598370105839194e-05
0.028,2895.3253871849092,4.816679212965155,4324764.327333941,286.3569288268087,2897.79462968626,56.11744040257694,1.8305703129033446,4.7002028878119685e-05
0.035,3564.8161805502245,4.782439924628185,4323989.707829135,286.349328208286,2907.1319486863013,56.08853017825702,1.8311466134911707,5.75231779413251e-05
0.042,4115.575114862881,4.759295321506378,4323255.538066562,286.34212354289025,2913.0573324359693,56.061085862001974,1.831691245754982,6.761595228537776e-05
0.049,4525.090588058201,4.745165659542382,4322554.885868266,286.33524694153516,2917.270059590696,56.03485839187232,1.8322096736377127,7.734905072541491e-05
0.056,4836.296363716173,4.738144925500436,4321881.408050501,286.32863625727657,2920.5683689065672,56.00961939877532,1.8327068722920066,8.678686157545629e-05
0.063,5071.863447472626,4.735727395305179,4321229.513679528,286.3222366948587,2923.2465341164557,55.98516724671419,1.8331872090276087,9.59872618288988e-05
0.07,5247.844542922166,4.736585671471347,4320594.515722778,286.3160023063516,2925.5210254336366,55.96133266203639,1.8336543334556024,0.00010499951945129708
0.07700000000000001,5379.575308648605,4.739357989135437,4319972.555123552,286.30989525217234,2927.456314256522,55.93797612098612,1.834111242462608,0.0001138646977112506
0.08400000000000002,5478.177822532537,4.74320486779061,4319360.544729709,286.30388525590854,2929.114710152182,55.9149859157655,1.8345603283752185,0.00012261595581713157
0.09100000000000003,5551.379706231907,4.7475992495945105,4318756.061209343,286.29794854746,2930.5337142614853,55.89227430671352,1.8350034658573662,0.0001312795089840452
0.09800000000000003,5605.554911680674,4.75223388551291,4318157.230174925,286.29206673848233,2931.769554041492,55.86977340211632,1.835442102867566,0.0001398757423601186
0.10500000000000004,5645.576835455862,4.756941206924662,4317562.618080307,286.28622576346146,2932.8435083547806,55.84743126502974,1.8358773455237551,0.0001484203079767625
0.11200000000000004,5674.944644860729,4.761688406630697,4316971.13798649,286.28041495626536,2933.8037026923075,55.82520851102147,1.8363100316814982,0.000156925107347467
0.11900000000000005,5696.396157008354,4.76638631216317,4316381.964937061,286.2746262204755,2934.6698115048484,55.80307524800398,1.8367407966919544,0.0001653991916275442
0.12600000000000006,5711.986214916443,4.771020780365678,4315794.481051246,286.2688534911933,2935.4625025420396,55.78100908820853,1.8371701160668152,0.00017384934982860647
0.13300000000000006,5723.241619083565,4.775595698711894,4315208.225859522,286.26309224801525,2936.1990899853004,55.75899334897822,1.8375983439344197,0.00018228064666529257
0.14000000000000007,5731.294478395793,4.78011957640641,4314622.857175471,286.25733913125475,2936.893193710014,55.73701563471086,1.8380257432857696,0.00019069684879184366
0.14700000000000008,5736.982951521465,4.784601931267874,4314038.121256506,286.2515916492286,2937.5553494538376,55.71506675518796,1.8384525090124917,0.00019910075112409629
0.15400000000000008,5740.926848253353,4.789051613484721,4313453.830247523,286.24584795695773,2938.193606551303,55.69313990782813,1.8388787853049617,0.0002074944241687822
0.1610000000000001,5743.584107772903,4.793476175568831,4312869.845242133,286.2401066899608,2938.8140592091704,55.67123006359479,1.8393046787070022,0.00021587940008052135
0.1680000000000001,5745.292847075136,4.797881758825031,4312286.063624099,286.23436684003144,2939.421290855292,55.64933350810804,1.8397302678651954,0.00022425681185638753
0.1750000000000001,5746.302586189277,4.802273209754698,4311702.409641294,286.2286276627269,2940.0187318987605,55.62744749998015,1.840155610784279,0.00023262749704934
0.1820000000000001,5746.797391622859,4.8066542786436,4311118.827405269,286.2228886086552,2940.6089405910575,55.60557001711306,1.8405807502126375,0.00024099207481348149
0.22200000000000011,5746.913005142831,4.811027829008899,4310535.2757025445,286.21714927253936,2941.193819727947,55.5836995686871,1.8410057176321444,0.00024935100301164614
0.2620000000000001,5740.567837116194,4.81842711453523,4307195.557890818,286.1842913373513,2942.108201841493,55.458773953329604,1.8434325112538485,0.00029705060010884346
0.3020000000000001,5734.445048687547,4.84361364621706,4303852.860298466,286.15138495898304,2945.396755127267,55.33393500945844,1.845856699181385,0.00034460975964093393
0.3420000000000001,5729.49356210964,4.867882749339884,4300507.03208751,286.1184285756999,2948.575014202366,55.2091773385844,1.8482783734873598,0.00039203115784603414
0.38200000000000006,5723.970488968858,4.893206412904935,4297158.617722185,286.085427476784,2951.885688851927,55.08452046012788,1.8506971000901824,0.00043930997394085194
0.42200000000000004,5718.85329670963,4.917975423725645,4293807.331187268,286.05237877166496,2955.1257335746254,54.959954112170514,1.8531130746803417,0.0004864503325843875
0.462,5712.504749932947,4.943131570274645,4290453.359736367,286.01928423419866,2957.9014473320135,54.835484984133714,1.85552613519662,0.0005334512590846832
0.502,5704.651717073939,4.968481380311839,4287096.606941923,285.98614284073227,2960.0080447035843,54.711109626928454,1.8579363339294874,0.0005803148014198842
0.542,5696.68082373721,4.994038865236858,4283736.893648704,285.9529527476698,2962.124904722647,54.586821676157456,1.8603437847184663,0.0006270438507840559
0.5820000000000001,5689.361661240394,5.019191635234011,4280373.970022863,285.91971140819,2964.2087385979576,54.46261230202083,1.862748653290052,0.0006736419989200591
0.6220000000000001,5682.2856671411655,5.044621411442037,4277007.946015339,285.8864198289054,2966.313382852118,54.33848549199861,1.8651508354645427,0.0007201090117894028
0.6620000000000001,5675.648705826933,5.069978326922372,4273638.747271808,285.853077194263,2968.4112219752556,54.21443869039349,1.8675503651394931,0.0007664465841657318
0.7020000000000002,5669.351940214477,5.095442800906147,4270266.393755169,285.8196836209422,2970.516488690116,54.09047269750508,1.8699472057966597,0.000812655404275442
0.7420000000000002,5663.441314836907,5.1209238871716956,4266890.857166778,285.7862387475198,2972.6220004048396,53.96658661141901,1.8723413569660932,0.000858736650722243
0.7820000000000003,5657.895185281165,5.1464681148879325,4263512.133173486,285.7527424493158,2974.7314233739653,53.84278038647253,1.874732800399358,0.0009046912373456049
0.8220000000000003,5652.725723264767,5.172053069938589,4260130.2051846,285.71919447966377,2976.8429829081815,53.719053551983095,1.8771215270017114,0.0009505201909003892
0.8620000000000003,5647.931138338939,5.197690563047577,4256745.062332852,285.68559464807356,2978.957605106495,53.59540584724343,1.8795075234846448,0.0009962244646120383
0.9020000000000004,5643.517948506449,5.223375592040054,4253356.690638776,285.65194273261943,2981.0748890176237,53.47183690989348,1.8818907789045354,0.0010418050297941691
0.9420000000000004,5640.2152633842,5.249111330320951,4249965.0773057975,285.61823852254054,2982.675625903395,53.34834642711646,1.8842712814846025,0.001087262831800774
0.9820000000000004,5637.090963787787,5.2750740756940795,4246570.20865256,285.58448179770716,2983.897709779944,53.22493406290321,1.8866490201354524,0.0011325988114705239
1.0220000000000005,5633.544272207085,5.3009864285683435,4243171.956811495,285.5506712009715,2985.1155482841145,53.101595501056735,1.889024067204862,0.0011778150501255168
1.0620000000000005,5628.654241609659,5.3268856464280825,4239770.286766914,285.51680629651463,2986.330879909649,52.97832969541769,1.8913964266685515,0.0012229126642992181
1.1020000000000005,5623.03752099041,5.352863695767611,4236365.210383536,285.4828871145317,2987.548196890772,52.85513724436116,1.8937660682982023,0.0012678922843689811
1.1420000000000006,5617.4457025144875,5.37887754025144,4232956.716481214,285.448913455453,2988.766595096347,52.732017947211574,1.8961329787740067,0.001312754762291319
1.1820000000000006,5611.871608681003,5.404945805210216,4229544.8040299,285.4148852204166,2989.986903706649,52.60897196258597,1.8984971374643151,0.0013575008369963704
1.2220000000000006,5606.317961078229,5.431061850692336,4226129.468089167,285.3808022712142,2991.208830395838,52.48599931828385,1.9008585266627067,0.001402131275953353
1.2620000000000007,5600.783304805362,5.457229017432542,4222710.705158337,285.3466644836111,2992.432521468946,52.363100097399325,1.9032171276983811,0.0014466468217531707
1.3020000000000007,5595.267942798825,5.4834464380940355,4219288.51093242,285.3124717249596,2993.6579383499484,52.24027436032293,1.9055729225599134,0.0014910482146620898
1.3420000000000007,5589.771448926653,5.509715018635224,4215862.881247102,285.2782238636233,2994.8851203096237,52.11752217748528,1.9079258932089267,0.0015353361833823698
1.3820000000000008,5584.293705643142,5.536034920363804,4212433.811684459,285.2439207650339,2996.1140738741155,51.994843615664706,1.9102760218618675,0.0015795114491124413
1.4220000000000008,5578.31474282615,5.5624066157829475,4209001.29773885,285.209562293343,2996.686926659196,51.872238743691085,1.9126232908677914,0.0016235747240589589
1.4620000000000009,5571.8459562848875,5.589231104031806,4205565.334749379,285.1751483107406,2997.254923998479,51.74970763008098,1.914967682754176,0.0016675267122479415
1.502000000000001,5565.584950898186,5.615643241144296,4202125.670862763,285.14067620089946,2997.8150286586156,51.62724187239087,1.9173093559013366,0.0017113705009782132
1.542000000000001,5559.270977639839,5.6422930842113,4198682.400075811,285.10614681027795,2998.3794896627523,51.50484496594785,1.9196482217655395,0.001755105798332921
1.582000000000001,5552.9972332626085,5.668931789922902,4195235.480219053,285.0715596205844,2998.9435300040395,51.38251573545714,1.9219842888929182,0.0017987336257116833
1.622000000000001,5546.730510114646,5.695649540465279,4191784.9181019184,285.0369146040889,2999.5088858025338,51.260254689995456,1.9243175310526042,0.0018422545214213108
1.662000000000001,5540.482162195663,5.722414883719182,4188330.7029887945,285.0022115565873,3000.0749489170425,51.13806174304693,1.9266479345080765,0.0018856691840749115
1.702000000000001,5534.247958677523,5.749239421053033,4184872.8301210087,284.96745033339096,3000.6419422099293,51.01593701740344,1.9289754813370572,0.0019289782460582992
1.742000000000001,5528.029088145103,5.776119632033971,4181411.292468084,284.9326307665097,3001.209796294308,50.89388056330633,1.9313001552642264,0.001972182352859386
1.7820000000000011,5521.824872328668,5.803057272507035,4177946.083602041,284.8977526935185,3001.7785438574406,50.77189245648205,1.933621939630132,0.0020152821356836845
1.8220000000000012,5515.635276912699,5.830052270179663,4174477.1967035434,284.862815947561,3002.348182161408,50.64997276427158,1.9359408180885822,0.0020582782210478326
1.8620000000000012,5504.459779269646,5.857105182757521,4171004.624904316,284.8278203607868,3002.582763957424,50.52812155725871,1.9382567743636814,0.0021011712276398056
1.9020000000000012,5490.910235813821,5.884408494364239,4167528.3611709597,284.79276576317545,3002.6657868563907,50.406338905307855,1.940569792328902,0.0021439617675309717
1.9420000000000013,5477.528027266073,5.911636306606895,4164048.2844745945,284.75765083359073,3002.7449815819637,50.28462104073093,1.9428799349083914,0.002186651506642352
1.9820000000000013,5464.306638764019,5.9389072698047825,4160564.3806603006,284.72247532690363,3002.8243079594818,50.16296782144791,1.9451871904020301,0.0022292410961680257
2.022000000000001,5451.223262991432,5.966248823067655,4157076.6470352234,284.68723911311446,3002.903774567161,50.04137949675794,1.9474915391839487,0.0022717310726750716
2.062000000000001,5438.283252133701,5.993648109501379,4153585.0736834495,284.65194198876094,3002.983362551872,49.91985607741654,1.9497929666553013,0.002314122032328004
2.102000000000001,5425.481942023788,6.021109852312492,4150089.652940771,284.61658377255947,3003.0630794525055,49.79839765485559,1.952091456678534,0.002356414542803147
2.1420000000000012,5412.817705891389,6.048633207726881,4146590.3763019517,284.58116427415945,3003.1429219413812,49.677004297117094,1.9543869937130944,0.0023986091720821605
2.1820000000000013,5400.288130217441,6.076218934291301,4143087.2353192973,284.54568330321746,3003.2228901166336,49.55567607903279,1.956679562193474,0.002440706480235449
2.2220000000000013,5387.891069238074,6.103867349574495,4139580.2213542396,284.5101406668778,3003.302983096163,49.43441307388611,1.9589691466979156,0.002482707021803393
2.2620000000000013,5375.624361024124,6.131578890946114,4136069.325644667,284.47453617044624,3003.3832002789973,49.31321535566045,1.9612557319000332,0.0025246113452679136
2.3020000000000014,5371.892859846234,6.159353965187353,4132554.5392873473,284.43886961720483,3003.221665539605,49.19208299844858,1.9635393025786578,0.0025664199933007627
2.3420000000000014,5372.1367083644645,6.187316043127736,4129035.8532428253,284.4031408084538,3002.9440448223563,49.07101607660976,1.965819843612393,0.0026081335028055675
2.3820000000000014,5372.51811303685,6.215262154155763,4125513.1881240658,284.3673488298957,3002.6661782031406,48.95001233906872,1.9680973873673042,0.002649753034905046
2.4220000000000015,5373.082986233286,6.243255244741531,4121986.527184244,284.33149340186367,3002.3880878158184,48.82907162598333,1.9703719235705772,0.0026912791752833286
2.4620000000000015,5373.830954520036,6.271324019184694,4118455.865768947,284.29557436693335,3002.1093915493943,48.708194183120696,1.9726434337794476,0.0027327123942979203
2.5020000000000016,5374.767787911193,6.299456336913198,4114921.1923617464,284.2595914972953,3001.8302191600437,48.587380033777535,1.974911904179667,0.0027740532172440763
2.5420000000000016,5375.899157251127,6.327656131467022,4111382.4972881177,284.22354458321905,3001.5505299278325,48.46662926703064,1.9771773197106757,0.002815302146376289
2.5820000000000016,5377.23083725036,6.35592302781852,4107839.770266556,284.18743340814035,3001.270325830862,48.34594195674459,1.9794396657125553,0.0028564596828833705
2.6220000000000017,5378.768907541069,6.3842576109679054,4104293.000969663,284.15125775436223,3000.9895997986014,48.225318180106385,1.9816989275469903,0.0028975263219583663
2.6620000000000017,5380.519684400109,6.4126602828479315,4100742.1789134205,284.1150174019198,3000.708346424504,48.104758013977374,1.9839550906694794,0.0029385025538542302
2.7020000000000017,5382.489755535063,6.44113147676951,4097187.293475878,284.07871212876205,3000.426560050223,47.98426153551351,1.9862081406148255,0.002979388863787981
2.7420000000000018,5377.243897048049,6.469671623429446,4093628.3338944837,284.0423417107168,2999.8951330620152,47.86382882208474,1.988458062996883,0.0030201857320321527
2.782000000000002,5371.557871435186,6.498382710698118,4090065.289266264,284.00590592148393,2999.34454577164,47.743459951284855,1.9907048435065073,0.003060893633980697
2.822000000000002,5365.908942724402,6.527058129553725,4086498.092676485,283.9694039607278,2998.795024111722,47.62315318283202,1.9929485045902173,0.003101513523295578
2.862000000000002,5360.2676958378925,6.555831884270286,4082926.748502185,283.9328357561335,2998.2439553660993,47.50290910923123,1.9951890216149282,0.0031420457268722685
2.902000000000002,5354.639050512216,6.58467164777109,4079351.242101496,283.896201040151,2997.691934741044,47.38272770761624,1.9974263824534035,0.003182490730898466
2.942000000000002,5349.022401616346,6.613583608722955,4075771.5622323616,283.85949957928415,2997.1388528787193,47.26260907072566,1.9996605727184764,0.0032228489862832378
2.982000000000002,5343.41762069925,6.642567596538951,4072187.697074698,283.82273113337646,2996.5847096676325,47.14255327737585,2.0018915783756173,0.0032631209431635906
3.022000000000002,5337.8246467394565,6.67162402663271,4068599.63466688,283.7858954600705,2996.029496727116,47.0225604066753,2.0041193854544805,0.003303307047188766
3.062000000000002,5332.243379354762,6.700753379404815,4065007.3629204547,283.74899231494993,2995.4732039854644,46.90263053851013,2.0063439800374905,0.003343407739452797
3.102000000000002,5326.673731206911,6.729956091341588,4061410.8695969144,283.7120214512924,2994.9158222722003,46.782763752805536,2.008565348273052,0.0033834234567487608
3.142000000000002,5318.192648072995,6.759232613058829,4057810.142314436,283.6749826201295,2994.259640190574,46.66296012975711,2.010783476369258,0.0034233546315657524
3.182000000000002,5306.855392072141,6.788611063576783,4054205.1685461397,283.6378755702197,2993.5051706881877,46.54321974978894,2.012998350593141,0.0034632016921569745
3.222000000000002,5295.553628778351,6.818061478296811,4050595.9208756816,283.6006998961195,2992.748974647166,46.42354222161484,2.0152099666988863,0.0035029651859291365
3.2620000000000022,5284.315387066259,6.8475663228548775,4046982.376781428,283.5634552416516,2991.9918550787083,46.30392731840022,2.0174183171808093,0.003542645612511946
3.3020000000000023,5273.127604449329,6.877153925709376,4043364.5269981185,283.52614138633504,2991.2330535131496,46.184375243195184,2.0196233859947865,0.0035822433550287353
3.3420000000000023,5261.99259138555,6.906816498119258,4039742.3575561675,283.48875806040706,2990.472763889596,46.06488605334785,2.021825160065778,0.0036217588307553322
3.3820000000000023,5250.909514922081,6.936555939081591,4036115.855222382,283.45130500086464,2989.7109403756353,45.9454598347285,2.024023625804551,0.003661192445625449
3.4220000000000024,5239.877885960545,6.966372610348593,4032485.0065310635,283.41378194146915,2988.9475726304154,45.826096670758254,2.026218769724756,0.0037005446023705368
3.4620000000000024,5228.89724834904,6.9962669435521905,4028849.7978559746,283.3761886134777,2988.1826494385327,45.706796644729465,2.0284105783951025,0.0037398156999639783
3.5020000000000024,5217.96712652762,7.02623941813964,4025210.215429107,283.33852474582756,2987.41615828093,45.58755984042484,2.030599038425602,0.0037790061335099003
3.5420000000000025,5208.2809965514125,7.056290497753479,4021566.2453308953,283.30079006502433,2986.600801304315,45.46838634182475,2.0327841364719563,0.0038181162943679505
3.5820000000000025,5201.064216705264,7.086431978796917,4017917.8734916965,283.2629842951478,2985.6854890039353,45.34927623317715,2.0349658592327593,0.003857146570183142
3.6220000000000026,5193.83135663998,7.116665258845115,4014265.079838419,283.2251070971249,2984.7647069759537,45.2302294147848,2.0371441970911803,0.0038960973923165038
3.6620000000000026,5186.60682432499,7.1469585622491785,4010607.839253889,283.18715807847167,2983.842628288682,45.11124563474011,2.0393191434673414,0.003934969227371933
3.7020000000000026,5179.386142728661,7.177336019169004,4006946.139368405,283.1491369779096,2982.918540169057,44.99232504833964,2.0414906837610722,0.0039737624334925305
3.7420000000000027,5172.1693912921,7.207794417429199,4003279.9653338543,283.1110435075509,2981.992529413554,44.873467737869305,2.0436588048597812,0.004012477384171485
3.7820000000000027,5164.956577458939,7.238334271555514,3999609.3022661675,283.07287737820985,2981.0645830320864,44.754673789604,2.0458234936131507,0.004051114448465647
3.8220000000000027,5157.747522870527,7.268956221980158,3995934.1351983044,283.03463829890694,2980.1346816135374,44.63594329233374,2.0479847368612094,0.004089673991422444
3.8620000000000028,5150.542109784809,7.299660701269407,3992254.4489811403,282.99632597582826,2979.2028122654547,44.51727633428379,2.0501425214937856,0.004128156374911885
