time,thrust,OF,ox_tank.pressure,ox_tank.temperature,combustion_chamber.temperature,propellant_mass,propellant_CG,combustion_chamber.fuel_grain.geometry.length_regressed
0.007,247.18545768548998,5.423789926175834,5466757.554508971,296.5867779246857,2771.6727151423734,54.53022145024879,1.8263318477231785,1.268533624591855e-05
0.014,1084.7725393618227,5.1711521225832495,5465321.3944064975,296.5749951607878,2909.6598770685628,54.49202559777708,1.8272339691213022,2.532243198275732e-05
0.021,2326.708031618269,5.090375855354931,5463957.876648771,296.56380613575055,2950.7806354820827,54.455684787327,1.8280873278441376,3.7521206248418845e-05
0.028,3344.9880301222775,5.025437720299871,5462662.738915418,296.55317621176096,2970.6777208924495,54.42109225919479,1.8288949392873766,4.930078168005858e-05
0.035,4168.794568607606,4.971956027812319,5461428.548538523,296.543044680212,2981.721606370137,54.388060432982776,1.8296618706351655,6.07004671210209e-05
0.042,4823.993187245308,4.9290676163991725,5460247.323209868,296.53334626207,2988.210598616582,54.3563872321496,1.8303935069411559,7.176464003267246e-05
0.049,5338.383532387385,4.895487141924331,5459111.174024833,296.5240163901514,2990.840634967521,54.32587242718458,1.8310951307969763,8.253882014318942e-05
0.056,5746.046664661426,4.870439931697839,5458012.736264007,296.5149947526351,2992.5001199119515,54.29632867849708,1.8317716456071658,9.306677616793089e-05
0.063,6061.909027952531,4.852404168062755,5456945.266914288,296.5062261012839,2993.6870635142104,54.267584128276475,1.832427518327491,0.00010338960438816599
0.07,6307.669023776922,4.839687797072157,5455902.828655179,296.4976617698717,2994.6138428704776,54.23948720997746,1.8330666661843424,0.00011354423115431415
0.07700000000000001,6487.585173053188,4.831047006828317,5454880.405608287,296.48926063238304,2995.412056043353,54.21190971359653,1.8336923879024578,0.00012356235220345674
0.08400000000000002,6630.757675852795,4.8256398281123385,5453873.858474121,296.4809887412973,2996.152586607253,54.184745726739635,1.8343073985506788,0.00013347045690094826
0.09100000000000003,6743.173697378958,4.822786300657452,5452879.801006095,296.4728183183888,2996.8753119706535,54.15790853750655,1.8349139141464361,0.00014329043572561332
0.09800000000000003,6829.433007857213,4.82178015089672,5451895.482229338,296.4647267914853,2997.5841219555186,54.131327661386734,1.835513731320487,0.0001530402148384355
0.10500000000000004,6895.488846335101,4.822157789180846,5450918.712867965,296.45669619362764,2998.2731037931435,54.10494698286799,1.8361082774812407,0.00016273414764541726
0.11200000000000004,6945.978572105018,4.82357236868025,5449947.766837233,296.4487123564947,2998.957221018065,54.0787222475033,1.8366986764137587,0.0001723836037891765
0.11900000000000005,6984.501846572295,4.825764469797763,5448981.2930561565,296.44076418791576,2999.6335081798507,54.0526188106125,1.8372858066390927,0.00018199751441457763
0.12600000000000006,7013.840819886824,4.828541355941026,5448018.24005197,296.4328430539281,3000.2993386863386,54.026609709036755,1.8378703510899057,0.00019158284879624473
0.13300000000000006,7036.138908539807,4.831759307805603,5447057.793080728,296.42494226324277,3000.9610480700208,54.00067405098608,1.838452838399978,0.0002011450180871346
0.14000000000000007,7053.045255545536,4.835310562700739,5446099.3229334885,296.4170566474035,3001.618983505237,53.97479570400135,1.83903367643376,0.00021068820766742048
0.14700000000000008,7065.825911776885,4.839114452765964,5445142.344977499,296.4091822248054,3002.2736699716033,53.94896224462279,1.839613179057811,0.00022021564515083386
0.15400000000000008,7075.45153278467,4.843110281853353,5444186.486669429,296.40131593415293,3002.925658643285,53.92316412500876,1.8401915873382986,0.00022972981417250624
0.1610000000000001,7082.66555428883,4.847252249461274,5443231.462056084,296.3934554252076,3003.5754645420297,53.89739401865879,1.8407690861554842,0.00023923262288287644
0.1680000000000001,7088.036947084348,4.851505707146541,5442277.051892345,296.3855988956036,3004.2235392724365,53.871646310214125,1.841345817142255,0.0002487255357076757
0.1750000000000001,7092.000907900806,4.855844386520532,5441323.08821694,296.3777449642301,3004.8702636440303,53.845916699641315,1.8419218887108182,0.00025820967577510023
0.1820000000000001,7094.890167467032,4.860248336962684,5440369.44243198,296.36989257336074,3005.515950598006,53.82020189634276,1.8424973837941763,0.00026768590418547794
0.1890000000000001,7096.959033822585,4.864702384262556,5439416.0161169525,296.36204091322253,3006.1608527862104,53.79449938345614,1.843072365806467,0.0002771548811521039
0.19600000000000012,7098.401830010285,4.869194973776352,5438462.733965403,296.35418936398594,3006.805171650686,53.76880723664073,1.8436468832222208,0.0002866171130388064
0.20300000000000012,7099.367017616949,4.873717299018545,5437509.53836267,296.346337451227,3007.4490663680726,53.74312398498883,1.844220973088926,0.0002960729884774318
0.24300000000000013,7099.96800665701,4.878262643256786,5436556.385228723,296.3384848117753,3008.092661902649,53.717448504405795,1.8447946637180694,0.00030552280605984313
0.28300000000000014,7091.647012703866,4.885266943351944,5431102.548799129,296.2935321643655,3008.9947755633557,53.57078765579763,1.848067498214784,0.0003594490583293161
0.3230000000000001,7087.175658719623,4.911912416318512,5425644.760619177,296.24851159988395,3012.6874696847403,53.424246065676996,1.8513306796802738,0.00041321321968973586
0.3630000000000001,7082.420721477755,4.937789814775282,5420182.956563112,296.20342245875935,3016.0150169085987,53.277822976630645,1.8545842330055404,0.0004668167708902808
0.4030000000000001,7069.415563188406,4.964753295760955,5414717.985948962,296.158271629007,3018.4196141024313,53.13154078199514,1.8578276091834507,0.0005202552405509028
0.44300000000000006,7055.198756792614,4.9920215454778365,5409249.249259015,296.1130540360881,3020.838288261699,52.985385088512444,1.8610611739412883,0.000573533596363242
0.48300000000000004,7041.583276371924,5.018734558189625,5403776.05300975,296.06776381151315,3023.2083948747877,52.83933921274473,1.8642853463568132,0.0006266573384809531
0.523,7027.872829455003,5.045706215410408,5398298.587446912,296.0224023896215,3025.599369696739,52.69340886465374,1.8674999905733642,0.0006796262115461747
0.5630000000000001,7014.305602407897,5.072656284640433,5392816.740036513,295.9769686987939,3027.987333831677,52.54759209518807,1.8707051601610079,0.0007324419015754828
0.6030000000000001,7000.798496106516,5.0996826481705435,5387330.502906315,295.9314625324156,3030.380626267222,52.401889601084534,1.8739008434508704,0.0007851054032258481
0.6430000000000001,6987.37859297415,5.126752238934069,5381839.83219501,295.88588338427695,3032.776432859019,52.25630117281453,1.8770870511150295,0.0008376179257006386
0.6830000000000002,6974.035360154568,5.153877166682171,5376344.696416562,295.84023084934057,3035.175785345019,52.11082691425874,1.8802637861555134,0.0008899805828120951
0.7230000000000002,6960.7710954509785,5.181054010464299,5370845.059886276,295.7945044862845,3037.578009639767,51.96546682539925,1.883431054143494,0.0009421944992109477
0.7630000000000002,6947.583548353881,5.208284767695846,5365340.888375239,295.74870386442524,3039.981759257207,51.82022094452957,1.8865888597321685,0.0009942607746743837
0.8030000000000003,6934.912693102454,5.235569829478131,5359832.147076523,295.70282854681403,3042.3434140778336,51.67508929724561,1.8897372078986088,0.001046180497286497
0.8430000000000003,6931.701214701542,5.26292107252284,5354318.8009638395,295.65687809320025,3043.7398015312065,51.53007190553933,1.8928761037159,0.0010979547414118474
0.8830000000000003,6928.162162235418,5.290572985915604,5348800.802964139,295.61085196132245,3045.1460520053192,51.38516849351001,1.896005559445717,0.0011495846414131268
0.9230000000000004,6924.832375056128,5.31803236776962,5343277.853468695,295.56474749813583,3046.542393799979,51.24037251341115,1.8991257382079267,0.0012010728790349463
0.9630000000000004,6921.586128355336,5.345627944434678,5337750.001905555,295.5185649591775,3047.944572397726,51.09568612063596,1.9022365927210358,0.0012524199452354275
1.0030000000000003,6918.461970700624,5.373257881830386,5332217.18769136,295.47230368051913,3049.3476895766757,50.951108734429575,1.905338141705488,0.0013036270006949666
1.0430000000000004,6915.450533755533,5.400953609880816,5326679.383345438,295.4259632731164,3050.7532563454674,50.806640599045934,1.9084303840209138,0.0013546949874486513
1.0830000000000004,6912.556599935221,5.4287064186801794,5321136.551470884,295.3795432634982,3052.160852817826,50.6622817149933,1.9115133243718028,0.0014056248952615399
1.1230000000000004,6909.7808973728315,5.4565196098575175,5315588.6575915385,295.3330432010597,3053.5706368036854,50.51803215752389,1.9145869656604868,0.0014564176827254712
1.1630000000000005,6907.12541429359,5.484392909012069,5310035.666337452,295.2864626261415,3054.9825940218802,50.373891982201854,1.917651311245213,0.0015070743009097097
1.2030000000000005,6904.591859620153,5.512327100203926,5304477.542568078,295.23980107942356,3056.396761024771,50.22986125273029,1.9207063642723265,0.0015575956867024971
1.2430000000000005,6901.285024846732,5.5403226553527345,5298914.251038914,295.19305809912163,3057.706974717524,50.08594003276945,1.9237521278683587,0.0016079827650542825
1.2830000000000006,6892.4965193918415,5.5684336405542165,5293345.7564955205,295.1462332217655,3058.373674018265,49.94212838830577,1.9267886050808445,0.001658236448611246
1.3230000000000006,6883.171435955716,5.5968825246936635,5287771.969987234,295.0993255301929,3059.0422524049673,49.79842507450083,1.9298158297513517,0.0017083579584074408
1.3630000000000007,6874.027046534565,5.625098304035673,5282192.545726763,295.05233194000414,3059.7035826380925,49.65482258552999,1.932833982271997,0.0017583500266059506
1.4030000000000007,6864.8649039650845,5.653465551439072,5276607.538576427,295.00525273525864,3060.3672037549422,49.51132323606179,1.9358430115157907,0.001808212972315213
1.4430000000000007,6855.732640936244,5.681878436304957,5271016.887537015,294.95808722296874,3061.031433381594,49.36792650916365,1.9388429329245762,0.0018579477952446616
1.4830000000000008,6846.620416661842,5.710362485391012,5265420.560022804,294.91083494775665,3061.69684824489,49.2246325854909,1.941833745524916,0.0019075553144827164
1.5230000000000008,6837.529875719537,5.7389131717169475,5259818.517667085,294.8634954037537,3062.3633440107865,49.08144150806223,1.944815451525266,0.001957036372205845
1.5630000000000008,6828.460218606652,5.7675321501269075,5254210.723238257,294.8160680929047,3063.030955059501,48.93835335097586,1.9477880523640536,0.0020063917928325762
1.6030000000000009,6819.4111763448645,5.796219751337276,5248597.13916298,294.7685525124912,3063.6996860737763,48.79536818351649,1.9507515495455385,0.002055622391912397
1.643000000000001,6810.382373327738,5.824976591971767,5242977.727839809,294.72094815776666,3064.369548112982,48.652486077841246,1.9537059444584375,0.002104728974437764
1.683000000000001,6797.424180650412,5.85380322833294,5237352.451568637,294.6732545213458,3064.745888423957,48.50970710732999,1.956651238412023,0.00215371233541291
1.723000000000001,6780.866447091504,5.882840238470505,5231721.272561954,294.62547109328597,3064.8642360170606,48.36703134692267,1.959587432626107,0.0022025732599386537
1.763000000000001,6764.304269835073,5.911939889676124,5226084.018506854,294.5775962188695,3064.980838572704,48.22445564431239,1.9625146021959812,0.002251313294939508
1.803000000000001,6747.940884730449,5.941030061120563,5220440.57067437,294.5296286933513,3065.0974929793074,48.08197815777562,1.9654327915005747,0.002299933659728803
1.843000000000001,6731.700362785394,5.970215321713858,5214790.915597545,294.48156820362954,3065.214427011078,47.93959958229618,1.9683419866047318,0.002348434957265602
1.8830000000000011,6715.595766988152,5.999470190629838,5209135.01063603,294.43341418692376,3065.331540348533,47.79731991576951,1.971242189500231,0.0023968179484582177
1.9230000000000012,6699.622814500359,6.028799889371918,5203472.818446478,294.3851661235716,3065.4488541714577,47.65513928727012,1.9741333991200105,0.002445083354286164
1.9630000000000012,6683.780146054973,6.058204333182646,5197804.3007704895,294.3368234842057,3065.5637296598934,47.51305780808503,1.9770156147434736,0.002493231891501675
2.003000000000001,6668.066932525891,6.087683460720269,5192129.419320167,294.28838573727063,3065.6785694051746,47.37107559299658,1.979888835508776,0.0025412642676974524
2.043000000000001,6652.478238505612,6.117239948280403,5186448.136340237,294.23985235381343,3065.7935936263184,47.22919277367148,1.9827530601099554,0.0025891811782894204
2.083000000000001,6637.934286484697,6.146872989305073,5180760.41242356,294.1912227888055,3065.8207167582364,47.08740944685027,1.9856082879635022,0.0026369833188859314
2.123000000000001,6626.693942169068,6.176620669106893,5175066.208313361,294.14249649649844,3065.5307531261897,46.94572571735053,1.9884545182327351,0.002684671375232189
2.163000000000001,6615.271759529808,6.2065466956700455,5169365.450120196,294.09367263239255,3065.2369888528265,46.804140877096685,1.9912917681843012,0.002732246216021667
2.203000000000001,6603.927235596458,6.236437509276303,5163657.98299627,294.04474965469666,3064.943894549694,46.66265232097213,1.994120097144557,0.0027797091453125844
2.243000000000001,6592.597524187548,6.266434024071919,5157943.795727891,293.99572724895796,3064.6499648162394,46.52126084611267,1.9969394880705904,0.00282706065943402
2.2830000000000013,6581.290820464337,6.296507907767397,5152222.84372202,293.946604812743,3064.355442039029,46.379966466048344,1.999749941384049,0.0028743014313982445
2.3230000000000013,6570.006382418834,6.326663164406482,5146495.086596753,293.8973817775821,3064.0602962102002,46.238769298692944,2.002551455094565,0.002921432102445685
2.3630000000000013,6558.743790662511,6.356900329562696,5140760.483612405,293.8480575697957,3063.7645180098766,46.09766945862386,2.0053440272053504,0.00296845330743379
2.4030000000000014,6547.502785734592,6.387219934347989,5135018.993793874,293.7986316115205,3063.468100251612,45.95666706005964,2.008127655644721,0.003015365674249093
2.4430000000000014,6536.283066268814,6.417622604661198,5129270.576016452,293.7491033214264,3063.1710346960435,45.815762218954575,2.0109023382180435,0.003062169823429046
2.4830000000000014,6527.1959723670125,6.448108946164664,5123515.188977613,293.69947211445304,3062.8178270108874,45.67495505241956,2.013668072619003,0.003108866368405624
2.5230000000000015,6527.498048755081,6.478699522353476,5117752.791196999,293.6497374017884,3062.219655222386,45.5342456788046,2.0164248564262377,0.0031554559155924813
2.5630000000000015,6528.007657141632,6.509445131157233,5111983.323204459,293.5998984369136,3061.6151910742574,45.39363380493705,2.019172696103742,0.003201939159715236
2.6030000000000015,6528.840487387757,6.540202749370622,5106206.6690046955,293.5499539815927,3061.010939780125,45.25311783853414,2.021911626194183,0.0032483170875433364
2.6430000000000016,6530.008633975669,6.5710614409145105,5100422.802798698,293.49990357392073,3060.4051338782856,45.112698288510664,2.024641635177312,0.003294590193619645
2.6830000000000016,6531.521283438797,6.602006406207882,5094631.680336383,293.4497465902985,3059.7980249482653,44.97237524142963,2.02736272066469,0.0033407590637444676
2.7230000000000016,6533.392039813032,6.633039154221509,5088833.258641539,293.3994824157828,3059.189591086781,44.832148819305864,2.0300748793984744,0.003386824269331291
2.7630000000000017,6535.634427449305,6.664160572080167,5083027.494737412,293.34911043305635,3058.579812671953,44.69201915011172,2.032778107894519,0.0034327863743152933
2.8030000000000017,6538.262707174004,6.695371206265642,5077214.345346806,293.29863001980647,3057.968677647726,44.5519863609497,2.0354724025889115,0.0034786459368142315
2.8430000000000017,6541.291889161304,6.726671700884721,5071393.766991977,293.2480405495657,3057.35617218921,44.41205058044634,2.038157759784719,0.00352440350866896
2.883000000000002,6536.557895845473,6.758062691538205,5065565.715976459,293.19734139152945,3056.64620929432,44.27221193842645,2.040834175657669,0.0035700596356069217
2.923000000000002,6521.2603216904035,6.789569777638904,5059730.148381165,293.14653191049695,3055.807900446577,44.132470565916464,2.043501646254716,0.0036156148573284097
2.963000000000002,6505.986423309925,6.821179613339468,5053886.998528371,293.0956112790846,3054.9669228222965,43.99282610544819,2.0461601779015424,0.003661069818752526
3.003000000000002,6490.790553811711,6.852857349839128,5048036.198369371,293.0445786460457,3054.1247216778156,43.853278155971786,2.0488097776333394,0.0037064251683769814
3.043000000000002,6475.657294257072,6.884633400851611,5042177.708751543,292.9934334092419,3053.2804817809847,43.713826981788394,2.0514504381907783,0.0037516813978682117
3.083000000000002,6460.587396978568,6.916503223146823,5036311.484164245,292.9421749085634,3052.434308106272,43.57447270911387,2.0540821551463773,0.0037968390248687756
3.123000000000002,6445.580590669179,6.94846761611716,5030437.479215038,292.89080248232796,3051.583895829597,43.43521547367066,2.0567049237602455,0.003841898559530812
3.163000000000002,6430.634694430422,6.980528193460032,5024555.648379914,292.83931546507984,3050.7305868902813,43.29605541508043,2.0593187390987193,0.0038868605058714548
3.203000000000002,6415.75017986456,7.012684355751455,5018665.945149315,292.78771318008063,3049.875298146225,43.15699265774309,2.061923596433896,0.0039317253661539445
3.243000000000002,6400.926714319023,7.044937013922756,5012768.3233345505,292.73599495071323,3049.018010367521,43.01802734040708,2.064519490620778,0.003976493634293548
3.283000000000002,6390.326280000366,7.0772870378812645,5006862.736660184,292.6841600968961,3048.000305683454,42.87915960701683,2.067106416290147,0.00402116579800613
3.323000000000002,6379.905106388493,7.109759581766485,5000949.138528292,292.6322079329885,3046.971202043405,42.74038960150968,2.0696843679564196,0.004065742340051935
3.363000000000002,6369.49402467084,7.1423109047902775,4995027.461587927,292.58013758802736,3045.940286540635,42.60171701236812,2.0722533494429975,0.004110223840116733
3.4030000000000022,6359.087940307053,7.174964050727797,4989097.661688858,292.527948391897,3044.9068618069073,42.46314205544492,2.074813353465828,0.004154610754729393
3.4430000000000023,6348.686279721789,7.207717536259733,4983159.691415591,292.4756396429854,3043.8709609196603,42.32466488103489,2.0773643739851657,0.004198903550378749
3.4830000000000023,6338.289032640707,7.24057171909281,4977213.502871288,292.42321063259124,3042.832574776447,42.186285636355166,2.0799064049030007,0.004243102689562075
3.5230000000000024,6327.895929992506,7.2735274197200726,4971259.048005444,292.37066064777645,3041.7916780885616,42.048004472944484,2.0824394399091575,0.004287208629199264
3.5630000000000024,6317.506736305496,7.306585309692013,4965296.278450451,292.31798896989517,3040.7482501027125,41.90982154313614,2.0849634725529884,0.004331221821485205
3.6030000000000024,6307.12122039917,7.339746077924085,4959325.145536541,292.26519487469176,3039.7022696694366,41.77173700050294,2.0874784962330066,0.004375142713853874
3.6430000000000025,6296.653775452805,7.373010419029694,4953345.600288466,292.21227763223743,3038.5612965842943,41.63375099989677,2.0899845041949083,0.004418971749031875
3.6830000000000025,6286.156540427216,7.406380884378973,4947357.593419549,292.15923650684346,3037.383983125783,41.49586369743313,2.092481489530729,0.004462709365103136
3.7230000000000025,6275.66171662949,7.439855479107355,4941361.073821628,292.10607074363156,3036.2009393994786,41.35807521755026,2.0949694458428056,0.004506356002836872
3.7630000000000026,6265.168157227481,7.4734365722264275,4935355.991254451,292.05277959231444,3035.0149314561195,41.22038571221989,2.0974483660411334,0.004549912092648875
