time,thrust,OF,ox_tank.pressure,ox_tank.temperature,combustion_chamber.temperature,propellant_mass,propellant_CG,combustion_chamber.fuel_grain.geometry.length_regressed
0.007,250.1761166815973,3.8820299579670965,5088712.098577467,293.39843165828745,2771.626457685735,56.45825639914253,1.7775161581756784,1.8432296831680843e-05
0.014,1235.7338858776784,3.656629726071031,5087501.182670018,293.38792896417334,2793.880809987598,56.419401058628154,1.778292285999324,3.6781386921706005e-05
0.021,2545.2774333678644,3.5891580420553266,5086366.51552345,293.3780858567671,2786.2335065752045,56.382856931062506,1.77901513031259,5.4335088324882876e-05
0.028,3597.950760032788,3.5336597910432084,5085301.8176127225,293.368848188365,2771.665495093552,56.34843875660738,1.7796892969357236,7.114425776487277e-05
0.035,4425.157030288598,3.488471415165514,5084298.727164426,293.3601436854449,2756.9951005646594,56.31589745446379,1.7803207709445772,8.728452413171828e-05
0.042,5071.148249679633,3.4530759684320094,5083348.493069907,293.3518966349547,2744.422061821524,56.28497085606064,1.780915740162553,0.00010283960232037319
0.049,5570.53991442521,3.4264940811511337,5082442.573706551,293.34403308648234,2734.553834433769,56.2554018285784,1.7814801871882324,0.00011789486693969136
0.056,5952.7267313945795,3.407391926375882,5081573.04124075,293.33648436910545,2725.9515985671296,56.22695072088595,1.7820196216196957,0.00013253243868114917
0.063,6243.552963242739,3.394424912661024,5080732.840095828,293.32918934352494,2719.846763023296,56.19940349569425,1.7825389153361406,0.00014682756030783185
0.07,6464.095724331792,3.386125902469665,5079915.885050453,293.32209526200205,2715.998504278463,56.17257500925494,1.783042247575655,0.00016084667930437178
0.07700000000000001,6630.622792100738,3.381304258489029,5079117.107433453,293.3151581770441,2713.8532580936953,56.14631068226353,1.7835330842406643,0.00017464618557553523
0.08400000000000002,6755.955596128698,3.3790295800230363,5078332.391070476,293.30834239188107,2712.966396377186,56.12048475065086,1.7840142299336177,0.00018827254629520353
0.09100000000000003,6850.010329126721,3.3786076914309033,5077558.457774851,293.3016194715893,2712.996513471146,56.09499691129156,1.7844879118329657,0.0002017631892447106
0.09800000000000003,6920.421721800912,3.379517099396391,5076792.7344187135,293.2949670930462,2713.687853635881,56.06976835014964,1.7849558739826268,0.00021514774736432232
0.10500000000000004,6973.0184639752315,3.3813849353163734,5076033.226347576,293.2883679489184,2714.853480277876,56.04473792453144,1.785419465737247,0.00022844934224759553
0.11200000000000004,7012.224907601088,3.383944474333431,5075278.401599217,293.28180874460645,2716.362535925618,56.01985864942663,1.7858797217956328,0.00024168581933769307
0.11900000000000005,7041.386443982049,3.3870053101048536,5074527.0919319615,293.2752793404859,2718.1197085126873,55.995094682110484,1.7863374301402044,0.00025487083727238237
0.12600000000000006,7063.024215245783,3.390431287477276,5073778.411317223,293.2687720452998,2720.0557563587868,55.970418832209624,1.7867931877116228,0.00026801478396719375
0.13300000000000006,7079.032450921032,3.3941246234825515,5073031.690545173,293.2622810491067,2722.1236270986547,55.9458105603515,1.7872474449145317,0.00028112552227605315
0.14000000000000007,7090.832567252916,3.3980145904459778,5072286.42574708,293.255801976815,2724.288376914525,55.92125440076027,1.7877005405557422,0.00029420898291194494
0.14700000000000008,7099.489370292873,3.402049830947135,5071542.238460223,293.24933154176625,2726.524579397807,55.89673873652178,1.7881527288911672,0.0003072696276819188
0.15400000000000008,7105.799595846307,3.4061928370220587,5070798.84493401,293.2428672794395,2728.8137150840294,55.87225485774566,1.7886042003792755,0.00032031080729416823
0.1610000000000001,7110.358888464878,3.4104160884259516,5070056.03272418,293.2364073443566,2731.142227750844,55.8477962431248,1.7890550974855408,0.0003333350351400914
0.1680000000000001,7113.612264493139,3.4146993167618356,5069313.642944926,293.229950356061,2733.500153530671,55.82335801507379,1.7895055266531972,0.0003463441953730024
0.1750000000000001,7115.892036114272,3.4190275490668505,5068571.556867341,293.22349528280006,2735.880144581227,55.79893652827265,1.7899555673341339,0.00035933970026646257
0.1820000000000001,7117.459043479213,3.4233896978163556,5067829.685831009,293.21704135395265,2738.16978185193,55.77452905994237,1.790405278781699,0.00037232260877577053
0.1890000000000001,7118.5039733917565,3.4277849603683435,5067087.963667398,293.2105879942523,2740.1802610803943,55.75013357725471,1.79085470514869,0.0003852937156215844
0.19600000000000012,7119.087363796047,3.432220772978188,5066346.339413026,293.2041347604876,2742.2079763136117,55.725748513916784,1.7913038803776178,0.00039825363672613633
0.23600000000000013,7119.32678709817,3.4366735219847993,5065604.770674458,293.1976812838323,2744.2424506226166,55.70137256698748,1.791752832643343,0.00041120288676669024
0.27600000000000013,7111.490192000468,3.443270375382382,5061361.664098204,293.1607418253858,2747.2329072788752,55.562149310613115,1.7943154964104613,0.00048508617178224145
0.3160000000000001,7102.177698305343,3.470753292916276,5057115.406323855,293.12375110402405,2759.7562326032494,55.423072184453645,1.7968741455004866,0.0005586808873873515
0.3560000000000001,7100.443152712383,3.493954371384175,5052864.217181515,293.08669351267775,2770.3452277676874,55.28408650149372,1.7994299118537525,0.0006320106480325984
0.3960000000000001,7094.408907318539,3.52153441964586,5048612.246025844,293.0496051416249,2782.918878424006,55.14531760705953,1.8019800140940518,0.0007050310307688654
0.43600000000000005,7091.604508998232,3.546323379660537,5044357.011456203,293.01246428076877,2794.227028893804,55.00668947966151,1.8045260516131478,0.0007777736626129627
0.47600000000000003,7086.705306037784,3.5732042757883495,5040100.322290158,292.9752866463311,2806.481743096065,54.868256183581444,1.807066798864218,0.0008502211194720477
0.516,7083.408653911395,3.598731443722943,5035840.957863862,292.93806151026104,2818.1225010696226,54.729980098719096,1.8096030215716685,0.0009223903573810926
0.556,7079.1285766331075,3.6253301150190933,5031579.807375199,292.9007965739289,2830.2473648622386,54.59188739044956,1.812134103479803,0.000994274394665764
0.5960000000000001,7075.674284038016,3.6512899083445647,5027316.281457568,292.86348661565,2842.08218978057,54.45395962602447,1.8146603956214555,0.001065882851083461
0.6360000000000001,7071.773973543835,3.677822642766383,5023050.827763861,292.82613548390583,2854.1753332481967,54.31620963468099,1.8171815735759722,0.0011372136575143524
0.6760000000000002,7068.321383593773,3.7040703533666606,5018783.163518495,292.78874063482476,2866.1382745259484,54.17862829075184,1.8196977886700938,0.0012082728475678666
0.7160000000000002,7064.341780180141,3.730644851355646,5014513.520584256,292.75130403174325,2877.7052983680037,54.041221942526825,1.8222088590769827,0.0012790606790853269
0.7560000000000002,7059.096287738278,3.7573254632158144,5010241.766151287,292.71382444249537,2887.59973483385,53.903986019025474,1.8247148395825497,0.0013495813953235526
0.7960000000000003,7052.613249987229,3.784625934609122,5005967.781657537,292.6763007568039,2897.7171593799003,53.766916418413516,1.8272157754717715,0.0014198390048697335
0.8360000000000003,7046.874102361073,3.811259442771694,5001690.878821634,292.63872685466424,2907.588088970884,53.62999211022448,1.8297120761968868,0.001489843632314903
0.8760000000000003,7040.735324134293,3.8384276599995464,4997411.450446167,292.6011061069876,2917.6538830168156,53.49322436068084,1.8322034573183017,0.001559593526701662
0.9160000000000004,7034.963810841197,3.8653748271054766,4993129.254806715,292.5634363098432,2927.637343283205,53.356605539450776,1.8346900412846874,0.0016290937982743644
0.9560000000000004,7029.055415557638,3.892607755185758,4988844.475549783,292.52571899908634,2937.72434130617,53.22014068880198,1.8371716794238457,0.0016983449021856574
0.9960000000000004,7023.3410891878,3.9197921325068488,4984557.016299076,292.4879532472163,2947.79234779657,53.08382654462396,1.8396484019913897,0.0017673502730913078
1.0360000000000005,7017.601089843668,3.947151942324408,4980266.965081653,292.4501397501668,2957.9234507645106,52.947665326568476,1.8421201226299684,0.0018361113216724912
1.0760000000000005,7011.979278324132,3.9745397460769265,4975974.287508203,292.4122781256053,2968.0636624287463,52.811655641290436,1.844586833071598,0.0019046307279674518
1.1160000000000005,7006.379125570741,4.002055539104541,4971679.029734266,292.3743687012739,2978.2496106524445,52.675798489984984,1.8470484746656077,0.00197291027358246
1.1560000000000006,7000.600806918861,4.029634234956318,4967381.184018613,292.336411329595,2988.185065643523,52.540093294631234,1.849505023227278,0.0020409522732665786
1.1960000000000006,6992.786877467659,4.057415026632176,4963080.777939205,292.298406174811,2996.2204972260233,52.404540530331786,1.8519564328634806,0.0021087586303888766
1.2360000000000007,6983.791520395536,4.08584514375923,4958777.715288352,292.2603523065182,3004.4354112329875,52.26913705106958,1.8544027353319767,0.002176332504050502
1.2760000000000007,6975.509262017336,4.113633917379447,4954471.348286666,292.2222439091563,3012.465742367593,52.133863592464635,1.8568443045969072,0.0022436827249497984
1.3160000000000007,6966.868243921162,4.141944308262864,4950162.028136816,292.1840840007796,3020.643147142772,51.99873022582312,1.859280891956961,0.0023108076476500766
1.3560000000000008,6958.538389413399,4.170087610601183,4945849.548574852,292.1458706660294,3028.771583167211,51.86373069957706,1.8617125957027432,0.00237771139154156
1.3960000000000008,6950.105508905796,4.198497386722555,4941534.053367445,292.1076050891576,3036.9744503175225,51.72886901293735,1.8641392975111288,0.002444394416574796
1.4360000000000008,6941.824543374603,4.22690569592206,4937215.469768239,292.0692865357908,3045.175548668497,51.594142851121724,1.866561013328895,0.0025108593846991344
1.4760000000000009,6933.536762271643,4.255481258387273,4932893.85870919,292.0309154568609,3053.4228587032444,51.45955380787694,1.868977677074098,0.002577107552597674
1.516000000000001,6925.339276661512,4.2841206988387945,4928569.19793079,291.99249156507807,3061.687017430215,51.3251010642916,1.8713892741968878,0.0026431409978195366
1.556000000000001,6917.17092898854,4.312890260525546,4924241.516334717,291.9540150273577,3069.985579408578,51.19078529831246,1.873795759154122,0.00270896124627488
1.596000000000001,6909.90921236795,4.341750595368135,4919910.810728344,291.9154857253921,3077.2946591140662,51.05660626552561,1.8761971063889928,0.0027745701204451583
1.636000000000001,6902.981373043837,4.37110539732447,4915577.09727662,291.8769037129093,3083.5437868515537,50.92256429155826,1.8785932788989956,0.0028399692182787912
1.676000000000001,6895.663752874235,4.4005627055882455,4911240.004573704,291.83826558980263,3089.8092726110003,50.78864853824652,1.8809844740219157,0.0029051639780000344
1.716000000000001,6888.573292262625,4.42986780136317,4906899.297955143,291.79956916616896,3096.0413140114993,50.654852180289865,1.8833708044915567,0.0029701583918831033
1.7560000000000011,6881.422166806716,4.459421674511427,4902555.086582414,291.7608153143692,3102.323668260846,50.52117832392669,1.8857521753390312,0.0030349529842705557
1.7960000000000012,6874.377400924459,4.489015624635247,4898207.314675415,291.7220034361653,3108.6129274494024,50.38762533330997,1.8881285913123873,0.003099549896581764
1.8360000000000012,6867.34386892958,4.518772144954578,4893856.022082087,291.6831337861664,3114.934580164459,50.25419433099321,1.8904999999706364,0.003163950296222075
1.8760000000000012,6860.37465337219,4.548623323734498,4889501.194184049,291.6442061325801,3121.274517835749,50.12088488379872,1.8928663817993798,0.00322815586432009
1.9160000000000013,6853.438933703607,4.578609820970971,4885142.846934703,291.60522051648707,3127.641196395838,49.98769744291622,1.8952276992914536,0.0032921679568955107
1.9560000000000013,6846.553367602351,4.6087103900305,4880780.978627939,291.5661768208981,3134.030212658146,49.85463196187758,1.8975839257308562,0.0033559880795617754
1.9960000000000013,6840.98054466547,4.638939072741417,4876415.597240078,291.527075015207,3139.8806948255487,49.721688678530946,1.8999350289116974,0.0034196176202049423
2.0360000000000014,6838.432162400353,4.669457820792293,4872046.704952655,291.48791501671013,3144.360179274866,49.58886767285642,1.9022809803158656,0.003483058000457029
2.0760000000000014,6835.4615332477115,4.7003385604851005,4867674.149311525,291.44869535494166,3148.8861751418026,49.456164645430746,1.9046218422884893,0.003546312104273166
2.1160000000000014,6832.792899123298,4.730965207334653,4863297.6114073,291.40941306078776,3153.3746760171443,49.32357061748772,1.9069577735775056,0.003609384363320211
2.1560000000000015,6830.132248574579,4.761912544264033,4858917.238255453,291.3700693432029,3157.907582114926,49.19108985196458,1.9092886594692617,0.0036722747013389415
2.1960000000000015,6827.639620711443,4.792893505452176,4854532.953767687,291.3306634084532,3162.4441420457815,49.058720293401464,1.911614516060134,0.0037349851606873403
2.2360000000000015,6825.234146210607,4.824062343082945,4850144.799907744,291.29119552269793,3167.006255358301,48.926463235223714,1.913935290752262,0.0037975166358131906
2.2760000000000016,6822.959978685336,4.855339994666907,4845752.7565856185,291.25166539406155,3171.582712361739,48.79431822395437,1.9162509672549157,0.0038598705919404806
2.3160000000000016,6820.7966527100025,4.886770074956484,4841356.8358618105,291.2120730194605,3176.1781804626926,48.66228572012458,1.9185615108204936,0.003922048170056969
2.3560000000000016,6818.756629499428,4.918332160429839,4836957.032728911,291.1724182418504,3180.790836478876,48.53036571009315,1.9208668967606015,0.003984050653337955
2.3960000000000017,6810.8491148346275,4.950038584893357,4832553.350470576,291.13270097848647,3184.5003876700202,48.39855842002147,1.9231670957875366,0.004045879228227232
2.4360000000000017,6796.900645553882,4.982707322790264,4828145.787991204,291.09292110678706,3187.558504653963,48.266863959548445,1.925462081307366,0.004107535103896017
2.4760000000000018,6782.58346176368,5.01530030296335,4823733.616770556,291.0530719316304,3190.601761646904,48.13526213676162,1.9277522403183613,0.004169026200223972
2.516000000000002,6768.600981740466,5.047710391844187,4819316.552182944,291.0131507524366,3193.627494974656,48.003745270640835,1.9300377033091871,0.004230356228336982
2.556000000000002,6754.6067788878245,5.080415578537164,4814894.700475141,290.9731583973634,3196.6787761536348,47.87231661476165,1.9323183781358828,0.00429152525519878
2.596000000000002,6740.740832496369,5.113222578748873,4810468.008940321,290.9330942576525,3199.738204210585,47.74097499340397,1.9345942630492245,0.004352534800646933
2.636000000000002,6726.94544256127,5.146212975073898,4806036.489502624,290.8929583082953,3202.813118013596,47.60972103888987,1.936865319795428,0.004413385772879628
2.676000000000002,6713.242988644507,5.179355753061483,4801600.127444777,290.8527502825615,3205.900726581445,47.47855464939668,1.9391315252496815,0.004474079308502847
2.716000000000002,6699.623578221351,5.212665848253429,4797158.918504668,290.81247000772026,3209.0023706287407,47.34747602043781,1.9413928504880866,0.004534616432735521
2.756000000000002,6690.223493280353,5.246139559731711,4792712.85386905,290.7721172691239,3211.658102257094,47.21648522820536,1.9436492692189977,0.0045949981967215526
2.796000000000002,6688.4085401142565,5.279918418522165,4788261.926221303,290.73169186500695,3213.4826206930657,47.08558239713798,1.9459007543880886,0.0046552256227485895
2.836000000000002,6686.495967147527,5.313977968927101,4783806.010895706,290.69119252597187,3215.3181369975487,46.954764430190124,1.9481473438235248,0.0047153007682044015
2.876000000000002,6684.821849536652,5.347998655117156,4779344.928714668,290.6506174829286,3217.1512642102803,46.82402676114772,1.9503891045896544,0.0047752261464460025
2.916000000000002,6683.305325502565,5.382274174115191,4774878.734816981,290.6099670950985,3218.996968461427,46.69337128592676,1.9526259740183685,0.004835002152803053
2.956000000000002,6681.980389341039,5.416697335079128,4770407.395448023,290.5692409126479,3220.848535209648,46.56279746222188,1.9548579385653995,0.0048946299636584345
2.996000000000002,6680.841494921272,5.451309427948223,4765930.908520985,290.5284387730844,3222.707809049732,46.43230562416724,1.9570849672934791,0.004954110459116537
3.0360000000000023,6679.897069755462,5.486098111722238,4761449.260197351,290.4875604060979,3224.5756327915515,46.30328566808464,1.9593458142664195,0.005013444609870327
3.0760000000000023,6678.442188541639,5.5153420081012445,4756962.440445098,290.4466055752362,3226.1343437755895,46.17907442443772,1.9617337521166927,0.0050726413689957004
3.1160000000000023,6674.5693622656145,5.5256301044045815,4752470.885114117,290.40557811754803,3226.6380590938434,46.05493191033885,1.964116052327142,0.005131724855145872
3.1560000000000024,6670.2317421779635,5.537495001988253,4747975.981488609,290.36449058110094,3227.1914966065556,45.930895124732665,1.9664919128215277,0.0051906833613672146
3.1960000000000024,6663.707677389259,5.548895806212366,4743477.344135439,290.32333932824616,3227.431620324056,45.80695438117476,1.968861536699602,0.005249520705153617
3.2360000000000024,6656.899236517389,5.56057634017382,4738975.068070801,290.2821251104472,3227.6756995958085,45.68311262892628,1.97122485552773,0.005308236501538789
3.2760000000000025,6650.18524438619,5.572017335693507,4734468.963805616,290.24084607406553,3227.9138786382496,45.55936536901546,1.9735819601815228,0.005366832825699155
3.3160000000000025,6643.44676179794,5.583503199621437,4729959.074084143,290.1995024897603,3228.1527164018657,45.435714192157086,1.9759328111642194,0.005425309730521386
3.3560000000000025,6636.718171448402,5.594944195821423,4725445.365730112,290.15809393216074,3228.390105546745,45.31215870528833,1.9782774113631816,0.005483667920033165
3.3960000000000026,6629.989535546849,5.606366560715564,4720927.827710318,290.11662017795237,3228.6266647215043,45.18869909719615,1.9806157512396776,0.00554190790093628
3.4360000000000026,6623.263529931483,5.617762887432222,4716406.442546847,290.0750809438695,3228.8622192698685,45.065335391733655,1.982947824752198,0.005600030229337026
3.4760000000000026,6616.539263433162,5.629135369708439,4711881.194482808,290.03347596157863,3229.096821120302,44.94206766081285,1.985273624821593,0.0056580354405520875
3.5160000000000027,6609.8168510652495,5.640483476260817,4707352.067164958,289.9918049564023,3229.3304578462457,44.81889596407039,1.9875931446116497,0.005715924069049141
3.5560000000000027,6603.09612634889,5.651807444257348,4702819.044297615,289.95006765331726,3229.563135165255,44.69582036588159,1.9899063771670336,0.005773696642912402
3.5960000000000027,6596.377002621752,5.663107292943476,4698282.109457667,289.9082637752468,3229.7948536370254,44.57284093057253,1.992213315513384,0.00583135368547804
3.636000000000003,6589.659371967646,5.674383101213345,4693741.24614563,289.8663930435225,3230.0256152230545,44.44995772375655,1.9945139526278421,0.005888895714956831
3.676000000000003,6582.943133369004,5.685634929778583,4689196.4377704915,289.8244551777371,3230.2554214467445,44.327170811956236,1.996808281445799,0.00594632324461825
3.716000000000003,6576.228184864633,5.696862842939234,4684647.667653015,289.7824498957667,3230.4842739082956,44.20448026270395,1.9990962948575715,0.006003636782816793
3.756000000000003,6569.514452365225,5.708066902532727,4680094.919023906,289.7403769137465,3230.7119680972223,44.081886144509525,2.0013779857078697,0.006060836833060834
3.796000000000003,6562.801963611882,5.7192472440673185,4675538.175023393,289.69823594605833,3230.9367865590816,43.95938852686484,2.00365334679452,0.006117923894068456
