time,thrust,OF,ox_tank.pressure,ox_tank.temperature,combustion_chamber.temperature,propellant_mass,propellant_CG,combustion_chamber.fuel_grain.geometry.length_regressed
0.007,235.333716814465,7.4462667676301155,4347324.776095211,286.5778469052762,2795.2844677107837,55.417794144184505,1.8739662828980677,8.347193534228685e-06
0.014,824.1112837557059,7.044541659993425,4346373.885671765,286.5685529074342,2948.92722176504,55.38486489754476,1.874692979778701,1.6668435675277542e-05
0.021,1880.0783078066258,6.8442094344871744,4345477.21232347,286.5597874293297,3004.5770863912735,55.35372613565408,1.875375412819042,2.4744982972869028e-05
0.028,2747.065543876679,6.669814972338158,4344631.782594667,286.5515216429728,3036.789161962661,55.32428147406918,1.8760161297530344,3.2583628872698046e-05
0.035,3437.1112967261333,6.518783303496724,4343832.284345933,286.54370381953566,3057.6966647491454,55.296357448640975,1.8766195412542759,4.020287914952951e-05
0.042,3985.7666998472114,6.391153620215559,4343072.875744556,286.5362770094724,3071.961377176617,55.269762726597186,1.8771904536984605,4.762536255713891e-05
0.049,4385.297937362261,6.28592735110487,4342347.672772978,286.5291838117326,3081.6585749303304,55.24430409330552,1.8777336766159296,5.487565103848853e-05
0.056,4705.024685746805,6.201140106158215,4341651.061172244,286.5223694288211,3088.7026924447096,55.21979676323317,1.8782537750879824,6.19786227629387e-05
0.063,4955.506422679364,6.134173641122763,4340977.908682251,286.51578374795605,3093.8058298919605,55.19607146889943,1.8787549042968776,6.895813582634031e-05
0.07,5169.015353254156,6.082232361308802,4340323.694968427,286.50938261749855,3096.960592038599,55.172978863270856,1.879240710934702,7.58360312463474e-05
0.07700000000000001,5333.548691903988,6.042630514281901,4339684.557175868,286.5031282978593,3099.285948219535,55.150391135507675,1.8797143020205689,8.26315617875689e-05
0.08400000000000002,5459.560124626806,6.012872312620212,4339057.274090331,286.49698931123606,3101.0149093323475,55.12820157934965,1.8801782620560104,8.936118462410008e-05
0.09100000000000003,5555.545424927137,5.990858994164432,4338439.220966018,286.49094000366864,3102.2952523946315,55.10632316727305,1.8806346926708832,9.60385725522366e-05
0.09800000000000003,5628.297718895144,5.974867566796371,4337828.295371597,286.4849598227667,3103.2614540982377,55.0846861415573,1.881085274422772,0.00010267484455340167
0.10500000000000004,5683.182677470166,5.963516313399057,4337222.835900761,286.47903252489084,3103.9801226421796,55.0632353498486,1.8815313334592185,0.00010927889049892653
0.11200000000000004,5724.387745592881,5.955720702985931,4336621.543781347,286.4731454100644,3104.526141421851,55.04192766310333,1.8819739052343116,0.0001158577223480038
0.11900000000000005,5755.15873166923,5.950636647970214,4336023.412045255,286.4672886303498,3104.9412722347947,55.02072963527945,1.8824137917423953,0.00012241681374249044
0.12600000000000006,5777.993265955411,5.947614958728061,4335427.665084009,286.46145459944586,3105.2544401370174,54.99961550208079,1.8828516101674466,0.000128960402409163
0.13300000000000006,5794.803587359866,5.946158794765668,4334833.70842913,286.45563750202905,3105.4894360911285,54.97856551589527,1.883287833182984,0.0001354917489129731
0.14000000000000007,5807.048193869909,5.945889303483736,4334241.08814737,286.44983289695176,3105.669287425472,54.957564598227904,1.8837228214643549,0.00014201335019012215
0.14700000000000008,5815.837172944169,5.94651824261228,4333649.458604094,286.44403740216086,3105.80746209977,54.93660126915667,1.8841568494565204,0.00014852711156238587
0.15400000000000008,5822.013167604069,5.947827021749174,4333058.557211964,286.4382484478526,3105.9141511225266,54.91566680840586,1.8845901255308954,0.00015503448290140264
0.1610000000000001,5826.214802222086,5.9496500146385936,4332468.184801382,286.4324640845558,3105.9970600865913,54.89475460302458,1.8850228076370383,0.00016153656529255232
0.1680000000000001,5828.925496768731,5.95186184878473,4331878.190488313,286.4266828351665,3106.0620123693457,54.873859644448714,1.8854550153571508,0.00016803419371895801
0.1750000000000001,5830.5108567888865,5.954367688534478,4331288.46007143,286.42090358147846,3106.1134072195823,54.852978142846624,1.8858868391417511,0.00017452800071641433
0.1820000000000001,5831.247200738737,5.957095833064401,4330698.907171084,286.41512547751756,3106.1545670959026,54.83210723260118,1.88631834735804,0.00018101846512756767
0.1890000000000001,5831.343261754998,5.959992092032207,4330109.466482396,286.40934788354565,3106.188000713293,54.811244748076646,1.8867495916532908,0.00018750594930034648
0.19600000000000012,5830.95666089098,5.9630155196053005,4329520.08864968,286.40357031591844,3106.215602069226,54.790389053286965,1.887180611027112,0.0001939907273882208
0.23600000000000013,5830.2063911036985,5.966135182918369,4328930.736379076,286.39779240905216,3106.23880092472,54.76953891272969,1.8876114349183595,0.00020047300683461111
0.27600000000000013,5822.500904963983,5.9715157800866825,4325557.788284182,286.3647132605693,3106.182759856096,54.65042929762858,1.8900714027836547,0.00023748281620731865
0.3160000000000001,5812.7265844639915,5.990403151450733,4322181.859732813,286.33158550878636,3106.2436653604445,54.5313754501669,1.8925279727827835,0.00027443215096774093
0.3560000000000001,5801.760813493475,6.01050534780895,4318803.333405489,286.2984128360795,3106.298592039566,54.41239028677129,1.894980832546675,0.0003113191687249816
0.3960000000000001,5791.383084917438,6.029907251778275,4315421.725150864,286.2651904147817,3106.3532801011056,54.29345818376204,1.897430347516083,0.0003481467626481937
0.43600000000000005,5780.916013723917,6.0495798235058,4312037.196887584,286.2319197587031,3106.4081573555977,54.174584797619325,1.899876377746633,0.0003849142894822628
0.47600000000000003,5770.571626367039,6.069201553774445,4308649.687985989,286.1986001955332,3106.4629373209673,54.055768466438806,1.9023189570016779,0.00042162231731921834
0.516,5760.284562907155,6.0888718519267115,4305259.206854688,286.16523173098517,3106.517719655914,53.937009799091,1.9047580652537763,0.00045827103546548564
0.556,5750.073140145782,6.108560914458146,4301865.740900261,286.1318141638512,3106.572472561643,53.818308717853,1.9071936987776852,0.000494860744306378
0.5960000000000001,5739.930749635221,6.128277935333408,4298469.2837314345,286.09834735352416,3106.627205719635,53.699665350795634,1.909625849019455,0.0005313917077098425
0.6360000000000001,5731.403844849852,6.1480204332058275,4295069.827014472,286.06483113985286,3106.579926197804,53.581079764961345,1.9120545089071075,0.0005678641971457237
0.6760000000000002,5725.593289457434,6.167841409596781,4291667.362896036,286.03126536699193,3106.3665198595227,53.46255204564143,1.9144796709763503,0.0006042784786336186
0.7160000000000002,5720.163129661439,6.187727988417084,4288261.854514772,285.9976495922475,3106.151364047324,53.34408133749878,1.9169013499206555,0.0006406349701083303
0.7560000000000002,5715.205114581403,6.2075849049421965,4284853.257818103,285.9639833007677,3105.9367223375243,53.22566655913467,1.9193195656919217,0.0006769341234241267
0.7960000000000003,5710.691488413701,6.227488468127679,4281441.577850191,285.9302664617717,3105.721593974317,53.10730822994181,1.9217343005997043,0.0007131761251563608
0.8360000000000003,5706.635345798956,6.247414174360764,4278026.802286945,285.8964988725468,3105.5062773930126,52.98900630713487,1.9241455502097145,0.0007493612518265834
0.8760000000000003,5703.041846481789,6.2673690967763545,4274608.923642037,285.86268037771885,3105.290688034889,52.87076090764903,1.9265533063690656,0.0007854897514953992
0.9160000000000004,5699.920689730429,6.287351618887494,4271187.933045961,285.82881080778435,3105.074844591391,52.752572106161956,1.9289575619499852,0.000821561876890654
0.9560000000000004,5697.283218544242,6.307362408662994,4267763.821891782,285.7948899953755,3104.8587388763767,52.634439988466916,1.9313583095965334,0.0008575778766984025
0.9960000000000004,5695.143210577491,6.327401545941087,4264336.581410273,285.7609177710532,3104.6423695859207,52.51636463772126,1.9337555420461798,0.0008935379978386021
1.0360000000000005,5693.5168424606245,6.347469259778122,4260906.202777781,285.7268939643701,3104.425733682931,52.39834613794275,1.9361492520471604,0.0009294424849209515
1.0760000000000005,5692.422866412915,6.367565741572357,4257472.677088879,285.6928184035954,3104.208828570192,52.28038457313434,1.9385394323781822,0.0009652915804140867
1.1160000000000005,5691.88276966664,6.387691191963549,4254035.995362996,285.6586909157759,3103.991651547262,52.162480027505296,1.9409260758424995,0.001001085524635559
1.1560000000000006,5691.920969394314,6.407845809189727,4250596.148542537,285.62451132671254,3103.7741999446084,52.044632585419954,1.9433091752683727,0.0010368245557857772
1.1960000000000006,5692.565035750487,6.428029791967703,4247153.127493087,285.59027946095824,3103.556471090442,51.92684233141354,1.9456887235079603,0.0010725089099706433
1.2360000000000007,5693.645039892221,6.448243338803343,4243706.923003141,285.55599514181023,3103.2826594216513,51.809109350191605,1.9480647134366094,0.0011081388212264575
1.2760000000000007,5694.200190667609,6.468510256579284,4240257.525783932,285.5216581913037,3102.8695423386966,51.69143372663342,1.9504371379520542,0.001143714521543799
1.3160000000000007,5694.319123541856,6.488846028439778,4236804.913842778,285.4872683044004,3102.454494185615,51.57381514337886,1.9528059992908426,0.0011792363057957196
1.3560000000000008,5693.996882461668,6.509169252433157,4233349.050692367,285.4528250307471,3102.039934120078,51.45625282657016,1.9551713102334474,0.001214704540137787
1.3960000000000008,5693.206904684811,6.529536474363138,4229889.936123945,285.4183282807303,3101.6246128698076,51.33874716279325,1.957533056689675,0.001250119401400555
1.4360000000000008,5691.927647875728,6.549931249013033,4226427.5580535885,285.38377784591455,3101.2088760113384,51.221298162763944,1.959891233296996,0.001285481125141297
1.4760000000000009,5690.138603892187,6.570357775943353,4222961.907253307,285.34917354581177,3100.7926368224607,51.103905930839545,1.962245832549369,0.0013207899299304015
1.516000000000001,5687.821511150595,6.590815385045768,4219492.973765017,285.31451519212646,3100.375908569251,50.98657055087758,1.9645968474366995,0.0013560460357671692
1.556000000000001,5684.960203019687,6.611304452970029,4216020.74768481,285.279802596574,3099.9586832989125,50.86929211118167,1.9669442708677776,0.001391249660085837
1.596000000000001,5680.991574295515,6.63182514488102,4212545.219002178,285.2450355692706,3099.540094090558,50.75207069940783,1.9692880957871912,0.0014264010185962377
1.636000000000001,5675.790736951737,6.652378017991859,4209066.377630885,285.21021391903696,3099.1193392999453,50.63490640355647,1.9716283151518152,0.0014615003251456297
1.676000000000001,5670.594263958371,6.6729632232618314,4205584.2132186275,285.17533745148563,3098.6980633480625,50.51779930599056,1.973964922067373,0.001496547792695225
1.716000000000001,5665.402857184143,6.693580135520876,4202098.7152654715,285.14040597019783,3098.2762874999157,50.40074948721197,1.9762979097005728,0.0015315436327331471
1.7560000000000011,5660.2162438593205,6.7142295807911605,4198609.873588539,285.1054192813774,3097.8539935754875,50.28375704047711,1.978627270943817,0.0015664880529632512
1.7960000000000012,5655.034420273592,6.7349115772387735,4195117.677795397,285.07037718857197,3097.4311809679416,50.16682205521432,1.9809529987951613,0.0016013812599764195
1.8360000000000012,5647.566832316935,6.755626365054917,4191622.1174419057,285.0352794942491,3096.9303998996393,50.04994462200593,1.9832750862434616,0.0016362234584742686
1.8760000000000012,5638.139921351387,6.776397606995527,4188123.181995473,285.00012599942255,3096.3619862437995,49.93312483144661,1.9855935262939333,0.0016710148514707563
1.9160000000000013,5628.72761561977,6.7972030501317295,4184620.8486856143,284.9649163814678,3095.7926592904164,49.81636239487409,1.9879083206077084,0.0017057557005181296
1.9560000000000013,5619.349241089424,6.818031080224329,4181115.100231543,284.92965037211997,3095.2229645521925,49.699657199699566,1.9902194668166713,0.001740446237342889
1.9960000000000013,5609.996582939342,6.8388963576428505,4177605.92817662,284.8943277912168,3094.652477303233,49.583009412005715,1.9925269562126458,0.0017750866477600454
2.0360000000000014,5600.671373150556,6.859794841856794,4174093.320984366,284.8589484270381,3094.0813085250843,49.466419104550596,1.9948307822280729,0.0018096771307961113
2.0760000000000014,5591.373026222581,6.880727644519911,4170577.267715722,284.8235120732781,3093.5094282730547,49.34988637159212,1.9971309378194584,0.0018442178804754662
2.1160000000000014,5582.101391988075,6.901694806787548,4167057.7572205006,284.78801852090464,3092.9368351422577,49.23341130369041,1.9994274160403465,0.0018787090898354578
2.1560000000000015,5572.856254969327,6.922696553111257,4163534.778281805,284.7524675596074,3092.363522964644,49.11699399222097,2.0017202099381257,0.0019131509502285518
2.1960000000000015,5563.637409232462,6.943733082714366,4160008.3195943297,284.7168589775733,3091.789486217126,49.00063452871545,2.004009312568467,0.0019475436514439475
2.2360000000000015,5554.444649914282,6.964804597420523,4156478.3697662335,284.6811925614996,3091.214719323902,48.88433300493661,2.006294716993076,0.0019818873817127043
2.2760000000000016,5545.277773594249,6.9859112992328365,4152944.9173186356,284.6454680965829,3090.6392167115364,48.76808951287864,2.0085764162791415,0.0020161823277244227
2.3160000000000016,5536.136578403494,7.0070533902592,4149407.9506851286,284.609685366508,3090.0629728124304,48.6519041447688,2.0108544034987723,0.0020504286746435016
2.3560000000000016,5527.020863951574,7.028231072818747,4145867.4582113153,284.57384415343756,3089.4859820616884,48.535776993070876,2.013128671728391,0.0020846266061248665
2.3960000000000017,5518.3041366343705,7.0494445494209454,4142323.428154401,284.53794423800133,3088.893211915536,48.41970815048802,2.015399214048145,0.002118776304329565
2.4360000000000017,5511.884842830938,7.070696751949969,4138775.8486826373,284.50198539928476,3088.207472325476,48.30369770996575,2.0176660235413193,0.0021528779499401206
2.4760000000000018,5505.451450387437,7.091999448027503,4135224.7065012613,284.4659674008816,3087.5202120351446,48.187745722662754,2.0199290942363395,0.0021869317287563743
2.516000000000002,5499.02435237181,7.113325470525438,4131669.9817343755,284.42988993888144,3086.832503316433,48.07185204189463,2.0221884245964166,0.00222093785608777
2.556000000000002,5492.597767300533,7.134691452119335,4128111.6649186695,284.39375281428966,3086.1418188212956,47.95601684307847,2.0244440058605995,0.002254896495366844
2.596000000000002,5486.170810172367,7.156095437094493,4124549.7435260722,284.3575557963596,3085.4495361324766,47.84024021081699,2.026695831312291,0.0022888078228762306
2.636000000000002,5479.744764519206,7.1775358198825545,4120984.2045281753,284.3212986485743,3084.7563639422206,47.724522217593474,2.028943894510443,0.0023226720154192254
2.676000000000002,5473.319753890634,7.199013316252678,4117415.0355045176,284.28498113990764,3084.0622848793905,47.60886295754587,2.0311881885344305,0.0023564892450621683
2.716000000000002,5466.895615587504,7.220528328869167,4113842.2240380137,284.24860303868246,3083.367285463448,47.493262527993835,2.0334287063977343,0.002390259682040949
2.756000000000002,5460.472307885429,7.242080986653098,4110265.7575678267,284.2121641110679,3082.671361705972,47.37772102498023,2.035665441146996,0.0024239834954708195
2.796000000000002,5454.049762634332,7.263671510404194,4106685.6234515533,284.1756641217052,3081.9745066703854,47.26223854518336,2.037898385818868,0.0024576608530620324
2.836000000000002,5447.627916102945,7.285300102648266,4103101.8089506687,284.1391028335526,3081.276713997013,47.14681518549432,2.04012753344896,0.002491291921199486
2.876000000000002,5441.206704512794,7.306966968766243,4099514.3012320874,284.1024800078944,3080.5779772507653,47.03145104308584,2.0423528770698485,0.0025248768649455897
2.916000000000002,5434.786064368532,7.328672314248284,4095923.087367398,284.06579540432637,3079.8782900018127,46.91614621540953,2.0445744097106657,0.0025584158480540745
2.956000000000002,5428.360265057701,7.350416344839209,4092328.1543322587,284.02904878074224,3079.170510815437,46.80090080019884,2.0467921243965796,0.0025919090329827687
2.996000000000002,5421.876109391473,7.372199924176247,4088729.489005818,283.992239893321,3078.3884326461607,46.68571489547245,2.049006014148267,0.0026253565809060925
3.0360000000000023,5415.386111164846,7.394028961065084,4085127.0778480135,283.95536849321576,3077.604990246196,46.57058858988576,2.0512160721942987,0.002658758653219125
3.0760000000000023,5408.89805384964,7.415892232058181,4081520.9042735603,283.91843429963103,3076.820659505417,46.455521884242955,2.053422293698801,0.0026921154236629677
3.1160000000000023,5402.409804323335,7.4377964068471725,4077910.955711789,283.881437072094,3076.035198978316,46.34051490313013,2.0556246710919583,0.0027254270456244034
3.1560000000000024,5395.92163983569,7.459740202902453,4074297.218401874,283.8443765571911,3075.248653374117,46.22556773872785,2.05782319751891,0.0027586936763114474
3.1960000000000024,5389.433468931048,7.481724046574826,4070679.678662048,283.8072525015525,3074.4610083611374,46.11068048888827,2.06001786599907,0.002791915470878196
3.2360000000000024,5382.945227418333,7.503748133601114,4067058.3226937447,283.7700646498393,3073.6722572136277,45.99585325129369,2.0622086695544777,0.0028250925833395147
3.2760000000000025,5376.45685570234,7.525812670234461,4063433.136595343,283.73281274487607,3072.8823929598207,45.88108612389068,2.0643956011998013,0.002858225166515848
3.3160000000000025,5369.96829232193,7.547917867756877,4059804.106363717,283.69549652765943,3072.091408447011,45.766379204961424,2.066578653940343,0.002891313372033987
3.3560000000000025,5363.479476514222,7.570063936142895,4056171.2178924703,283.6581157373318,3071.2992965798608,45.651732593093556,2.068757820772274,0.002924357350343291
3.3960000000000026,5356.9903476945965,7.592251086046603,4052534.4569713944,283.6206701111683,3070.5060502503056,45.53714638719077,2.070933094681984,0.0029573572507255053
3.4360000000000026,5350.500845511671,7.614479528455142,4048893.8092857543,283.583159384561,3069.711662349207,45.42262068647517,2.0731044686456097,0.002990313221305682
3.4760000000000026,5344.010913082946,7.63674947472792,4045249.2604155447,283.5455832910035,3068.915688618928,45.30815559049074,2.075271935628545,0.003023225409062809
3.5160000000000027,5337.503083178162,7.659061275971143,4041600.7958347187,283.50794156207473,3068.0930540680647,45.193751199106664,2.0774354885849555,0.0030560939598402877
3.5560000000000027,5330.97431623816,7.681406581858831,4037948.400843856,283.47023392673543,3067.232246210371,45.079407610563905,2.0795951204997816,0.003088919018655336
3.5960000000000027,5324.455503689213,7.70378626826753,4034292.064688068,283.43246015387393,3066.3706317472256,44.96512504229622,2.0817508217680296,0.0031217007112597744
3.636000000000003,5317.933115963747,7.7262175031313465,4030631.7782034376,283.39462002810023,3065.5074086294176,44.85090376110003,2.083902581722823,0.0031544391548835224
3.676000000000003,5311.41070279409,7.748688794367765,4026967.524888069,283.356713257396,3064.6430232055827,44.736743821702746,2.086050394296704,0.003187134498129513
3.716000000000003,5304.887660848241,7.771203020055868,4023299.2900697147,283.3187395677891,3063.777369140889,44.6226453360764,2.0881942521743535,0.003219786879822457
3.756000000000003,5298.363960996353,7.7937600490326755,4019627.05867344,283.2806986802803,3062.910450929639,44.50860840795523,2.0903341482127726,0.0032523964390224337
3.796000000000003,5291.839555115471,7.816360099093546,4015950.815529538,283.24259031401687,3062.042261011485,44.39463314188923,2.092470075244636,0.0032849633136525632
