time,thrust,OF,ox_tank.pressure,ox_tank.temperature,combustion_chamber.temperature,propellant_mass,propellant_CG,combustion_chamber.fuel_grain.geometry.length_regressed
0.007,251.7731153206149,4.32109946330664,4955585.07314319,292.2321020400679,2765.013355367104,57.3697566194729,1.8219139780306577,1.568846940076404e-05
0.014,1204.7033632380687,4.063448618322662,4954365.61743358,292.22130794483223,2828.7021266849756,57.330210886580055,1.8227160640918736,3.130519796240579e-05
0.021,2516.008719433148,3.9832398563950013,4953224.725192853,292.21120741878354,2834.582151053339,57.29308109180054,1.8234623094736373,4.623143103031066e-05
0.028,3548.1019953611126,3.9189867846650266,4952156.386668803,292.20174761007394,2826.6118556726574,57.25818736469657,1.8241572047532983,6.0506795578389104e-05
0.035,4338.09000013247,3.867728691386071,4951151.644667293,292.1928495042362,2816.690041307665,57.22525863796967,1.8248072523472478,7.419961089386028e-05
0.042,4958.1427240210705,3.82842410948739,4950200.990012473,292.1844291299596,2807.7377633759447,57.19400552955845,1.825419273475473,8.738694007072917e-05
0.049,5431.553505517694,3.799614218041608,4949295.1739576245,292.1764047602738,2800.6910484366763,57.16414528622649,1.82599984392709,0.00010014722450977897
0.056,5794.818536164026,3.7794628507769574,4948425.693396054,292.16870121969487,2795.6407286999824,57.135416932175644,1.8265549662318663,0.00011255525814521101
0.063,6063.105517320059,3.76606399163441,4947585.079133577,292.1612524481552,2792.3137338814763,57.107590473466445,1.8270898823202848,0.00012467869155482027
0.07,6264.898318676856,3.757755062314141,4946767.016643941,292.15400258074703,2790.363879264562,57.080470952326,1.827609002707771,0.00013657606203660208
0.07700000000000001,6437.347185277709,3.7531027210539185,4945966.322264821,292.1469057456245,2789.421658461264,57.053897986854565,1.8281159339885902,0.00014829630922049433
0.08400000000000002,6549.04722985763,3.751011416360948,4945178.854967736,292.13992528962444,2789.190004346694,57.02774324534891,1.828613548351171,0.00015987908256602696
0.09100000000000003,6631.5850719342925,3.750795787623558,4944401.378534732,292.1330325629243,2789.486860292548,57.001906314177866,1.8291040848132507,0.00017135570048433667
0.09800000000000003,6692.3830484101245,3.7518648214370995,4943631.385208258,292.1262053607374,2790.1418163531175,56.976309314075266,1.8295892748103426,0.00018275062829009662
0.10500000000000004,6737.027748313619,3.7538358555219737,4942866.962606376,292.119426747286,2791.047630592967,56.95089281897377,1.8300704365101057,0.00019408263464526282
0.11200000000000004,6769.7018166560565,3.7564430373223816,4942106.665429713,292.11268392126345,2792.1248983120954,56.925611899017824,1.8305485647531756,0.00020536596658554437
0.11900000000000005,6793.520421994346,3.759501927336913,4941349.408846606,292.1059672726814,2793.3259150473814,56.900432821995295,1.8310244053878566,0.00021661135233081978
0.12600000000000006,6810.7982567834115,3.7628836787497706,4940594.382747519,292.0992696241318,2794.614482143154,56.87533039493274,1.8314985148190142,0.00022782682235357758
0.13300000000000006,6823.250237168706,3.766497783131538,4939840.984505151,292.0925856356701,2795.9655134335158,56.85028587652184,1.8319713065700585,0.00023901836116366304
0.14000000000000007,6832.144574930704,3.770280111410317,4939088.767111825,292.08591134571196,2797.361448528073,56.82528536547212,1.8324430871174746,0.00025019041431177387
0.14700000000000008,6838.417849886444,3.7741848846266097,4938337.399695315,292.0792438214488,2798.789884425846,56.80031857279712,1.8329140831259654,0.00026134627665378503
0.15400000000000008,6842.761026785631,3.778179206242884,4937586.637731601,292.07258089507826,2800.2419888751783,56.775377895285224,1.8333844619669797,0.000272488386444776
0.1610000000000001,6845.683483430951,3.782239305332098,4936836.30072223,292.06592096610643,2801.7114280587743,56.750457721026436,1.8338543470783382,0.000283618546335911
0.1680000000000001,6847.560523328404,3.786347927711908,4936086.255546999,292.0592628538931,2803.1936334976417,56.72555391146535,1.8343238294082709,0.0002947380884811494
0.1750000000000001,6848.668552202262,3.7904925049420233,4935336.404093025,292.052605688061,2804.685294761449,56.70066341651802,1.834792975912866,0.0003058479973661629
0.1820000000000001,6849.211077372705,3.7946638567342763,4934586.674085773,292.04594882726076,2806.184004370243,56.67578398933216,1.8352618358497739,0.0003169490009018679
0.22200000000000011,6849.337900315581,3.7988552636559265,4933837.012306272,292.0392917990688,2807.688006673361,56.65091397530848,1.8357304454310597,0.00032804163782844436
0.2620000000000001,6841.303274810786,3.8054224508393806,4929547.108605468,292.0011823931106,2810.0062626217536,56.50886749976708,1.8384054451788878,0.0003913352267041968
0.3020000000000001,6832.117969199873,3.830894055972145,4925253.786510628,291.9630172306813,2819.0975569469133,56.36695393286923,1.8410760746708383,0.00045441254503985
0.3420000000000001,6828.189485252711,3.8532226616347427,4920956.0029600635,291.92478693464403,2827.0850235583753,56.22514092568091,1.8437430031425226,0.0005172857486642982
0.38200000000000006,6821.050660033493,3.878965166727885,4916656.6499340525,291.88651714140303,2836.2792411559735,56.08351721094764,1.8464042504161378,0.0005799287315274206
0.42200000000000004,6816.335529563743,3.9024502718452,4912353.899588558,291.84819150121433,2844.674563216427,55.94202623626225,1.849061018155084,0.0006423612755629246
0.462,6809.976641237817,3.9276574357695875,4908049.098203294,291.8098219216099,2853.677114360932,55.80070900579329,1.85171237516774,0.00070457238626628
0.502,6804.877164142476,3.9517115059886323,4903741.299510446,291.7713998875214,2862.2712919892037,55.65953619197218,1.8543589276568768,0.000766573147940802
0.542,6798.956470813711,3.9766856595749,4899431.1972242305,291.7329315030153,2871.1891573160733,55.518528722472865,1.857000185670078,0.0008283588565512294
0.5820000000000001,6793.705181975774,4.00108405424987,4895118.307728836,291.6944123700754,2879.9027225895675,55.37767152427224,1.8596364448954996,0.0008899360388885518
0.6220000000000001,6788.051859710383,4.025989223314609,4890802.992737844,291.6558456362171,2888.7939720206678,55.23697535340624,1.8622674391363248,0.0009513031343319592
0.6620000000000001,6780.902944974901,4.050618616572295,4886485.005393701,291.6172290130041,2895.681497398164,55.0964324199806,1.8648933063746005,0.001012464326230392
0.7020000000000002,6772.1434863389095,4.076244156798646,4882164.536792221,291.5785641264636,2902.8156312914407,54.95604827932276,1.8675138951968746,0.001073419627185068
0.7420000000000002,6764.410275624296,4.100889053012434,4877840.714025806,291.5398430753182,2909.6789099921652,54.81579623581135,1.870129753783167,0.0011341789717612875
0.7820000000000003,6756.054150091967,4.126255713622681,4873514.0605214955,291.5010704541303,2916.738703904952,54.675691998166535,1.8727405110999231,0.0011947391612489834
0.8220000000000003,6748.1919824489405,4.151229938967428,4869184.226925654,291.4622430406363,2923.689565704445,54.53572483485604,1.8753463695242916,0.0012551051224147726
0.8620000000000003,6740.072494507985,4.176570543091718,4864851.457061568,291.42336292846426,2930.7394602979266,54.395901974150064,1.8779471433349315,0.001315276234411064
0.9020000000000004,6732.2001385825715,4.201764953327819,4860515.595297937,291.3844286287311,2937.7469170054355,54.25621858584911,1.8805429080452232,0.001375255552055707
0.9420000000000004,6724.234133633901,4.227161756928804,4856176.754817438,291.3454410647659,2944.8083105451146,54.11667795844216,1.8831335644084166,0.0014350436218903376
0.9820000000000004,6716.403007649059,4.252525596247633,4851834.867071975,291.3063995277237,2951.8593725290543,53.977277916668115,1.8857191315600272,0.001494642635991443
1.0220000000000005,6708.551915668827,4.278017227825962,4847489.985794682,291.2673044074417,2958.9440599155278,53.838019971777925,1.8882995497340724,0.0015540536409739277
1.0620000000000005,6700.784212447509,4.303528735876925,4843142.081877271,291.2281553486124,2966.0328931824115,53.698903157004345,1.8908748130006536,0.0016132784147298988
1.1020000000000005,6693.081605696664,4.329134470932448,4838791.181759159,291.18895249558636,2973.084181000695,53.55992817970914,1.8934448799420682,0.0016723182060259273
1.1420000000000006,6686.914907993339,4.354809700891481,4834437.2740197135,291.149695651588,2978.345655514963,53.42109462291338,1.8960097337656303,0.0017311745828067738
1.1820000000000006,6679.537041745921,4.3812549435897425,4830080.347779504,291.11038462414507,2983.754791496334,53.28240209719324,1.8985693575175207,0.0017898490829295387
1.2220000000000006,6672.873516281942,4.40690067505395,4825719.694678613,291.0710129205984,2989.0021150463967,53.14382949289174,1.90112417722891,0.0018483494303144546
1.2620000000000007,6665.817602798546,4.433133298249494,4821355.70988532,291.0315840042431,2994.3654216923296,53.00538859110105,1.9036739155512328,0.0019066734409014879
1.3020000000000007,6659.0632461685,4.4591128350747615,4816988.145800207,290.9920955344093,2999.6767354305803,52.86707206239539,1.9062187039610445,0.001964824643148978
1.3420000000000007,6652.178757940659,4.485368278953821,4812617.15816926,290.9525488144525,3005.0418093890653,52.72888456417295,1.9087584184949948,0.002022802960115552
1.3820000000000008,6645.431577583363,4.5115698926431325,4808242.651425608,290.9129428751526,3010.394772289678,52.59082331013159,1.9112930942929196,0.002080610519427046
1.4220000000000008,6638.65493223582,4.537925033222273,4803864.686098448,290.87327815928063,3015.7770343928287,52.452890142944376,1.9138226683276183,0.0021382480519137465
1.4620000000000009,6631.951569165999,4.564305258102302,4799483.225299361,290.8335542272495,3021.1629684269833,52.31508403361386,1.9163471390345936,0.002195717124798168
1.502000000000001,6625.257062120123,4.590791943186824,4795098.29238034,290.79377118492516,3026.5688110830165,52.177405738445835,1.9188664673083058,0.0022530187587153456
1.542000000000001,6618.610639842883,4.617335443178182,4790709.872953479,290.75392879565226,3031.9846708924106,52.03985490925158,1.9213806378466014,0.0023101542845919126
1.582000000000001,6613.953340764464,4.6439678866911756,4786317.975758804,290.7140270322567,3036.5557790277226,51.90243188550519,1.9238896211400265,0.0023671248138977152
1.622000000000001,6610.832820522416,4.670943898594375,4781922.594881629,290.6740657341493,3040.3530896805823,51.76513658346806,1.9263933969895095,0.002423931566830641
1.662000000000001,6607.587639626833,4.6979395500239995,4777523.475104718,290.6340424712825,3044.1496518898894,51.627961646157246,1.928892098761432,0.0024805778757192062
1.702000000000001,6604.488029576865,4.724884605515817,4773120.503464249,290.5939561023216,3047.9372896065,51.490903919477404,1.9313857709216204,0.0025370658120024495
1.742000000000001,6601.428976746973,4.751980614376458,4768713.728153956,290.5538069514465,3051.7432770703494,51.353964968997644,1.9338743587288698,0.0025933960490139157
1.7820000000000011,6598.474596372941,4.77911993515253,4764303.116612868,290.513594607165,3055.5540152490807,51.21714401052188,1.936357857230546,0.0026495699324872476
1.8220000000000012,6595.589526944354,4.806366589398803,4759888.683432685,290.4733190871103,3059.3782022856803,51.080441640673534,1.9388362327451727,0.0027055883910393685
1.8620000000000012,6592.795227071597,4.8336847375275775,4755470.415881741,290.43298015934465,3063.210977976307,50.94385766795161,1.941309468442956,0.0027614525687678815
1.9020000000000012,6590.08054559787,4.861096380342763,4751048.316742641,290.39257773300085,3067.0553289593936,50.80739235810569,1.9437775381974587,0.0028171634631799394
1.9420000000000013,6587.453066974958,4.88858997243669,4746622.379563897,290.3521116324277,3070.9096931576164,50.6710457156711,1.9462404216399716,0.002872722134050934
1.9820000000000013,6584.909709560439,4.91617339809715,4742192.602935374,290.31158172754743,3074.7751413159936,50.53481789759352,1.948698095493362,0.002928129583814518
2.022000000000001,6578.659080728172,4.9438433114403715,4737758.982271636,290.27098785875904,3078.0732314604707,50.39870897541004,1.9511505385376984,0.0029833868265772773
2.062000000000001,6566.2262140541825,4.972157067900324,4733321.514540878,290.2303298801766,3080.6099653048595,50.262719071774114,1.953597728753233,0.0030384948489493684
2.102000000000001,6553.045784858947,5.000719435894629,4728879.699433313,290.1896030842839,3083.1593175094267,50.1268340482127,1.9560399404683766,0.003093458707171713
2.1420000000000012,6540.387816413162,5.028790653273277,4724433.064675693,290.1488030073887,3085.6655205557845,49.99104066898072,1.9584774279328807,0.0031482831550616753
2.1820000000000013,6527.591153568849,5.057236118723633,4719981.816968691,290.10793140953916,3088.202862622675,49.855345208807115,1.9609100401533337,0.00320296734189156
2.2220000000000013,6514.961599652138,5.085652583401962,4715525.846930718,290.0669871503142,3090.7367508914513,49.71974488476987,1.9633378143384457,0.003257512997034905
2.2620000000000013,6502.356811636859,5.114229702747504,4711065.192053043,290.0259704369276,3093.2834454771855,49.584241125836925,1.96576070061935,0.0033119206361036865
2.3020000000000014,6489.841514681172,5.142880482518645,4706599.821356396,289.98488084680037,3095.8354896152273,49.448833410594816,1.9681786897042515,0.00336619131962394
2.3420000000000014,6477.385106810413,5.171646579695541,4702129.7352155885,289.94371824485546,3098.396450262149,49.31352211907594,1.970591753874633,0.003420325840997291
2.3820000000000014,6465.000739560377,5.200510041241706,4697654.919246537,289.90248235946365,3100.9647887929927,49.17830721749265,1.9729998741522834,0.0034743251005590237
2.4220000000000015,6452.681570119557,5.229480451096063,4693175.365537791,289.86117297781175,3103.540552452728,49.04318886276025,1.9754030278224606,0.0035281899342455066
2.4620000000000015,6448.675909831136,5.2585549859331815,4688691.0629112935,289.8197898562036,3105.2152479307356,48.90816712559594,1.9778011941333211,0.0035819211921794022
2.5020000000000016,6446.0952066988375,5.288023858481269,4684202.0011566095,289.77833275906454,3106.723029991969,48.77324211068924,1.980194351818033,0.0036355197048646665
2.5420000000000016,6443.675078179341,5.31734180200589,4679707.924240765,289.73679917734216,3108.2224794449558,48.638407004054976,1.9825826212198485,0.003688988232083018
2.5820000000000016,6441.355362903501,5.346843012187104,4675208.878429131,289.6951893914059,3109.7302704253198,48.50366354635867,1.9849659474160763,0.00374232711621736
2.6220000000000017,6439.1710784034285,5.376424617828778,4670704.828154927,289.65350292466036,3111.2414412476714,48.3690111762874,1.987344322762513,0.0037955373365009567
2.6620000000000017,6437.111270361797,5.406130580296829,4666195.771072747,289.6117396068051,3112.7581058364353,48.23445027468734,1.9897177205209284,0.003848619598940118
2.7020000000000017,6435.184073868474,5.43594388760667,4661681.690686215,289.5698991357045,3114.2794442664995,48.09998083106876,1.9920861220944062,0.0039015747099044513
2.7420000000000018,6433.389979981007,5.465872993705936,4657162.576070241,289.52798125990705,3115.805861615602,47.96560299781239,1.9944495057182918,0.00395440342135662
2.782000000000002,6431.732723597776,5.495915774592912,4652638.413693961,289.4859857028984,3117.3372541007584,47.83131686074919,1.9968078511285439,0.004007106495009132
2.822000000000002,6430.214881110234,5.526074493855095,4648109.19079703,289.4439121943822,3118.8737288834404,47.69712253370304,1.9991611376345728,0.00405968467613429
2.862000000000002,6424.5375496319575,5.556349617564038,4643574.894003189,289.4017604574081,3119.8750593314453,47.563020119712725,2.0015093449024506,0.0041121387044830895
2.902000000000002,6416.238345783421,5.587078339798753,4639035.509888147,289.35953021363,3120.6039703774113,47.429009726868,2.0038524526295736,0.004164469310026063
2.942000000000002,6407.899691279449,5.617743346025981,4634490.75084225,289.31721863014167,3121.3295598025356,47.29508387564839,2.0061905934378306,0.00421667930296181
2.982000000000002,6399.6071205449925,5.648484253269752,4629940.570489153,289.2748251138615,3122.0567565173737,47.16124181487163,2.008523763851886,0.004268769621793251
3.022000000000002,6391.323416351521,5.679371057831702,4625384.970281625,289.23234951591144,3122.7869720554213,47.02748412603204,2.010851933651174,0.004320740829990605
3.062000000000002,6383.061491340846,5.710374480369932,4620823.927641841,289.189791462513,3123.519576097893,46.893810731869,2.013175085988886,0.004372593664613127
3.102000000000002,6374.816882579792,5.74150646002366,4616257.428372775,289.1471506569079,3124.2525654608685,46.76022179353815,2.015493199330788,0.004424328789613174
3.142000000000002,6366.589192095513,5.772765501123321,4611685.455060441,289.10442677122484,3124.9875339326663,46.626717390109086,2.0178062538925134,0.004475946883975527
3.182000000000002,6358.379105082628,5.804151996030247,4607107.990137608,289.0616194750228,3125.7251054666617,46.49329760326008,2.020114229933239,0.004527448618565695
3.222000000000002,6350.1864143438415,5.83566756687947,4602525.0164158,289.0187284402592,3126.465316480482,46.35996253182029,2.022417107462637,0.004578834652294112
3.2620000000000022,6334.584632884604,5.867313338003689,4597936.516468421,288.97575333551714,3126.6514298362617,46.22671227478229,2.0247148665776433,0.004630105636877481
3.3020000000000023,6317.758816698836,5.899404863021917,4593342.472621719,288.9326938259049,3126.7828247555394,46.0935469310649,2.0270074874635005,0.004681262217010732
3.3420000000000023,6301.06425689197,5.931333988205676,4588742.62122742,288.8895472672477,3126.913870772083,45.96045991125951,2.029295082955269,0.00473230683988853
3.3820000000000023,6284.284244138446,5.963482020679951,4584137.0116295945,288.8463139463918,3127.0457409847577,45.82745318390796,2.031577595757804,0.0047832396222253345
3.4220000000000024,6267.4926849669255,5.995743643126855,4579525.605251307,288.80299332461806,3127.178105124923,45.69452632669056,2.033855016122086,0.004834061322191207
3.4620000000000024,6250.682677033555,6.028149540739326,4574908.387532468,288.7595850872718,3127.3110595977564,45.56167957811919,2.036127321266295,0.004884772512582503
3.5020000000000024,6233.869328060261,6.060692837871564,4570285.337020418,288.7160888536892,3127.444581041965,45.42891299636675,2.038394492042551,0.004935373808470962
3.5420000000000025,6217.061625554816,6.0933769212515445,4565656.4337996915,288.6725042563456,3127.5786793682087,45.296226688304216,2.040656508401803,0.004985865805441907
3.5820000000000025,6200.269218347274,6.126202943207988,4561021.657221191,288.62883091949607,3127.713350669754,45.16781415132626,2.0430255285682155,0.005036249096284781
3.6220000000000026,6189.112603944695,6.142089136319349,4556380.986112537,288.58506846112573,3127.7104932241778,45.04109860565301,2.0454328518657,0.005086542642220664
3.6620000000000026,6181.7027591687265,6.152238452664477,4551735.5403299965,288.54122727041727,3127.555698333428,44.91447253061647,2.0478340786311313,0.005136745745460985
3.7020000000000026,6174.225551389297,6.162903330075892,4547085.809442145,288.4973118132479,3127.396431118444,44.78794929947945,2.0502289239707734,0.00518685510181796
3.7420000000000027,6166.806717627801,6.1734731592171554,4542431.7050430905,288.45332110404206,3127.2377795163407,44.66152721944605,2.052617420715613,0.005236871566036318
3.7820000000000027,6159.884603679812,6.184026648881012,4537773.215444815,288.4092548800545,3127.0771185305175,44.53520659874441,2.0549995595413653,0.005286795437704039
3.8220000000000027,6153.0288225224085,6.1945565225905925,4533110.320582866,288.36511279829443,3126.916207847698,44.408987531708355,2.0573753355967006,0.005336627072457162
3.8620000000000028,6146.173337142384,6.205062012871729,4528443.0002959855,288.320894513684,3126.7553496711967,44.28287011412835,2.0597447439733108,0.005386366822624658
