time,thrust,OF,ox_tank.pressure,ox_tank.temperature,combustion_chamber.temperature,propellant_mass,propellant_CG,combustion_chamber.fuel_grain.geometry.length_regressed
0.007,256.00589581119084,4.049049962632969,5357066.595836768,295.6797839296281,2803.6285810285262,56.61492474149109,1.8038833023630942,1.6964291763718314e-05
0.014,1347.9445662365572,3.815757859826271,5355678.462554176,295.66821348419955,2843.329238575499,56.57415232821708,1.804744004431373,3.384615952596222e-05
0.021,2748.6223067036917,3.7607475167211684,5354377.479878663,295.6573673409468,2848.944731158068,56.535830843495525,1.8055468471793255,4.9929152123177894e-05
0.028,3874.299708473344,3.7179470030768993,5353156.708734889,295.6471880455134,2844.770142888268,56.49976949575182,1.8062966532319404,6.526539972119137e-05
0.035,4732.325718100688,3.684974951609703,5352006.568810561,295.63759604853885,2836.569321768944,56.46570274250287,1.806999915473278,7.993351560959058e-05
0.042,5411.872761110719,3.661211360858397,5350916.925623003,295.6285071046774,2829.9278321116963,56.433348363011575,1.807663422560905,9.402038408856428e-05
0.049,5934.0175167928755,3.6451830122302527,5349877.788707135,295.6198381017634,2825.338221690238,56.402427034409364,1.8082938070637407,0.00010761466759485563
0.056,6338.354355273801,3.6353935171224254,5348879.911524537,295.61151207429197,2822.7063858879314,56.372679362193956,1.808897164887024,0.00012080071978741044
0.063,6651.678870020826,3.630295159808422,5347915.096426528,295.60346075833246,2821.652663129041,56.343874724895485,1.809478869636037,0.00013365502207431782
0.07,6879.0565156676985,3.6285304603928337,5346976.34212334,295.59562583247396,2821.7499754672413,56.315815701107944,1.8100434893453738,0.00014624408020326207
0.07700000000000001,7049.672413732974,3.629056526808472,5346057.850827416,295.587958987004,2822.6396070884,56.28833850390767,1.8105947924751806,0.0001586237564367297
0.08400000000000002,7177.223748317464,3.63106615667609,5345154.932712257,295.580421134765,2824.027763321996,56.26131045704781,1.8111358178702404,0.0001708397411984027
0.09100000000000003,7272.28117275301,3.63401829633123,5344263.874449485,295.5729813206658,2825.720279474354,56.23462639727863,1.8116689655780907,0.00018292851916295891
0.09800000000000003,7342.9279259311215,3.6375573411788698,5343381.782086724,295.5656154155395,2827.5914457520585,56.20820430308287,1.8121961022001123,0.00019491870659854804
0.10500000000000004,7395.300334082682,3.6414578970838316,5342506.427948577,295.5583048422575,2829.5592071716133,56.18198100303418,1.8127186621412956,0.00020683243644139702
0.11200000000000004,7434.027985151779,3.645580146617415,5341636.113429077,295.5510354334031,2831.579727490898,56.155908312072384,1.8132377375759767,0.00021868664435546734
0.11900000000000005,7462.588271920432,3.6498391217789683,5340769.552719571,295.5437964628503,2833.62726335237,56.12994974770915,1.8137541542477809,0.00023049418331994563
0.12600000000000006,7483.584215413251,3.654183240401165,5339905.777758148,295.53657985384564,2835.6872139768284,56.10407784034619,1.8142685331789328,0.0002422647485736418
0.13300000000000006,7498.959151941931,3.6585812005269913,5339044.062693626,295.52937954951983,2837.751984084222,56.07827199302407,1.8147813395615355,0.00025400562021123287
0.14000000000000007,7510.161033507375,3.663013926257975,5338183.8649659185,295.5221910217694,2839.817769398064,56.05251681054362,1.8152929208055344,0.00026572224652557337
0.14700000000000008,7518.267124818913,3.6674696801638778,5337324.779961269,295.5150108932197,2841.8824865727315,56.026800812847185,1.8158035357673372,0.00027741869513865473
0.15400000000000008,7524.077555343034,3.6719411716410892,5336466.506460752,295.5078366491218,2843.946362738753,56.001115454327326,1.8163133769887254,0.000289097997893395
0.1610000000000001,7528.186714217348,3.6764236551436147,5335608.820498588,295.50066641933927,2846.009266698258,55.975454381712986,1.816822587502493,0.00030076241237433747
0.1680000000000001,7531.035615694932,3.6809141129922915,5334751.555727353,295.49349881457636,2848.071338849688,55.94981287664059,1.817331273442391,0.0003124136186127683
0.1750000000000001,7532.951315281412,3.6854105508220516,5333894.588686062,295.4863328034831,2850.132800479062,55.92418743743575,1.817839513495809,0.00032405286679286363
0.1820000000000001,7534.176267637667,3.6899116266830427,5333037.827795475,295.4791676208405,2852.1938824400927,55.898575466734144,1.8183473659594025,0.00033568108763178833
0.1890000000000001,7534.89016041759,3.6944164220441627,5332181.205155093,295.4720026991117,2854.2547938691396,55.87297503866597,1.818854873994652,0.0003472989746642171
0.22900000000000012,7535.2261349958935,3.6989242987635738,5331324.670438545,295.4648376174963,2856.3157116004645,55.84738472562585,1.8193620695364534,0.00035890704546913247
0.26900000000000013,7526.521374737893,3.7060979821094127,5326424.094022545,295.4238261059744,2859.5606169603057,55.70123165307515,1.8222564008501736,0.0004251278821435162
0.3090000000000001,7517.088176968521,3.7332114076369263,5321520.182429469,295.38275729992256,2871.1576490474918,55.5552342407794,1.8251444254873432,0.000491091393236026
0.3490000000000001,7513.457940759982,3.7566978326408242,5316611.667989608,295.3416204705029,2879.899129042879,55.4093567201952,1.8280269027016562,0.0005568125343726723
0.38900000000000007,7504.434862319916,3.78487307445391,5311702.461415426,295.30044830327444,2890.3644570271636,55.26370866936916,1.8309013465835828,0.0006222555975195162
0.42900000000000005,7499.2055340800935,3.809609815517889,5306789.368434588,295.25921392594086,2899.5619904155305,55.118200211701435,1.833769728164797,0.0006874543421622405
0.46900000000000003,7491.414880439319,3.836847337975078,5301874.588119257,295.21793570270637,2909.678520016608,54.97289270391162,1.836630644731405,0.0007523899040438492
0.509,7485.534692027475,3.8624062495977913,5296956.575600953,295.1766005721053,2919.176009922013,54.82774271592502,1.839485029478277,0.0008170797008220167
0.549,7478.418960833368,3.889251950040389,5292036.425183528,295.1352176407966,2929.145360847641,54.68278059118929,1.842332174967881,0.0008815156084625248
0.5890000000000001,7472.282039868088,3.9152815538587884,5287113.371428146,295.0937803826511,2938.8132973186694,54.537984793549114,1.8451725274306332,0.000945707344568439
0.6290000000000001,7465.560119695937,3.941990797347863,5282187.960942911,295.0522933080946,2948.7296502350914,54.39337035243483,1.8480057226641922,0.0010096520196520246
0.6690000000000002,7459.356277094508,3.9683163566975903,5277259.812524882,295.0107531170854,2958.5037155987575,54.24892650337506,1.8508319688136656,0.0010733555468682284
0.7090000000000002,7452.888372370525,3.995017362187392,5272329.201253261,294.96916203791693,2968.41434668585,54.10466071946331,1.8536510713753598,0.001136817568413604
0.7490000000000002,7446.708994268538,4.021553130752865,5267395.936507176,294.92751837273977,2978.263030376644,53.96056757388702,1.8564631216305771,0.0012000420871916813
0.7890000000000003,7438.665403426235,4.048311417912537,5262460.157881953,294.88582320927094,2986.4200635020575,53.816650792447675,1.8592680097527612,0.0012630299592150196
0.8290000000000003,7429.112122501249,4.075630914180503,5257521.769739585,294.84407564905763,2994.354172746468,53.67290761107782,1.8620657696236862,0.0013257842059754999
0.8690000000000003,7420.01785730648,4.102429180646588,5252580.09648599,294.8022698828802,3002.136100895761,53.52931935131698,1.8648567842906527,0.0013883131525586256
0.9090000000000004,7410.682259958368,4.129566026481661,5247635.356461624,294.7604076553542,3010.013246051508,53.385891999750925,1.8676408953149064,0.0014506167590201463
0.9490000000000004,7401.599130147819,4.156578041276749,5242687.382365951,294.71848744773666,3017.8530368949096,53.24262094791205,1.870418177236039,0.0015126985167471273
0.9890000000000004,7392.442379648647,4.183786857151196,5237736.282810954,294.67651007695423,3025.7475454176515,53.09950917531606,1.8731885391146352,0.0015745593406256658
1.0290000000000004,7383.427332096018,4.210979656615945,5232781.984589868,294.6344748190649,3033.635906778899,52.95655468625998,1.8759519994306368,0.0016362017804052492
1.0690000000000004,7374.4096326995095,4.238300134091207,5227824.535204766,294.592381973259,3041.559217932999,52.81375879916045,1.8787085049538825,0.0016976272504710074
1.1090000000000004,7365.4838467204745,4.265653336961213,5222863.901504081,294.55023115399774,3049.490050650847,52.67112063764378,1.8814580509039247,0.0017588378672255467
1.1490000000000005,7356.585674688317,4.29310411721194,5217900.103665041,294.5080224282088,3057.446311801162,52.528640789718004,1.8842006012318215,0.0018198352328465883
1.1890000000000005,7347.7563088385405,4.320610317531892,5212933.125945765,294.4657555572104,3065.41687232413,52.386318873902454,1.886936141533306,0.0018806212432363625
1.2290000000000005,7340.244332588463,4.34820119184749,5207962.9760702,294.42343050148423,3071.9143010744906,52.24415515572113,1.889664643933539,0.001941197553760168
1.2690000000000006,7332.190120230623,4.376429889437508,5202989.645950881,294.3810470865605,3077.96366388776,52.10214947991639,1.8923860902201826,0.002001565932254879
1.3090000000000006,7324.331177010977,4.404238364379537,5198012.486680221,294.3385996701959,3083.920984150197,51.960284396847655,1.8951008352196328,0.0020617337717798185
1.3490000000000006,7316.383596156935,4.432261212158321,5193031.589938721,294.29608891646524,3089.92146969722,51.818562544805005,1.8978087998477196,0.0021217018359756664
1.3890000000000007,7308.560660110642,4.46026862961497,5188046.8694048505,294.25351397046467,3095.9170303220712,51.67698176259545,1.9005100089223887,0.0021814724338018094
1.4290000000000007,7300.734004425233,4.488415794957608,5183058.368674943,294.21087508557264,3101.9402447539933,51.535543402485295,1.9032044121216087,0.0022410467041537757
1.4690000000000007,7292.981282168085,4.516609324572003,5178066.053041333,294.1681718458214,3107.971538801981,51.39424671556612,1.9058920047380974,0.0023004264472911797
1.5090000000000008,7285.254069550791,4.544908021771313,5173069.935551586,294.12540424289386,3114.0232438268604,51.25309224489142,1.9085727548040416,0.0023596130215530055
1.5490000000000008,7277.580934457347,4.573276965615145,5168069.999727895,294.08257201536753,3120.0880522104185,51.11207974846957,1.911246647606586,0.002418608017833319
1.5890000000000009,7269.943475055579,4.601738878592767,5163066.246850238,294.0396750532767,3126.170727643586,50.97120946770469,1.9139136585272065,0.0024774128493853915
1.629000000000001,7262.351959444629,4.630281050413083,5158058.667048402,293.9967131505731,3132.2686173566335,50.83048135293843,1.9165737695784173,0.0025360290023872458
1.669000000000001,7259.218477842501,4.658912543176269,5153047.256977761,293.953686156583,3136.513541981654,50.68989553597427,1.9192269593125006,0.0025944578841124587
1.709000000000001,7255.193861605895,4.688244292845674,5148032.009028079,293.9105938834588,3140.8508834087534,50.549452041851666,1.9218732089486334,0.002652700915998162
1.749000000000001,7251.729036875553,4.716874191453975,5143012.257944556,293.8674304857071,3145.08586222153,50.409133465942176,1.92451286869888,0.002710765049571259
1.789000000000001,7248.1391146979895,4.746015445353192,5137988.363684496,293.82419892562245,3149.393181713056,50.26894966466109,1.9271457110759438,0.0027686485053815156
1.829000000000001,7244.832754159269,4.774997047291019,5132960.140250148,293.78089747100216,3153.6755207528518,50.128896008894664,1.9297718156588761,0.002826354105616085
1.869000000000001,7241.519364697774,4.8042516789318555,5127927.716193354,293.7375270962097,3157.99471444255,49.98897620593633,1.932391086297221,0.0028838820041641043
1.9090000000000011,7238.327065735874,4.833518142648834,5122890.993574718,293.6940868243271,3162.3139579028757,49.849187980498556,1.9350035533556755,0.0029412342353858827
1.9490000000000012,7235.220592214575,4.86290735133562,5117849.984533376,293.65057662587844,3166.6493922793716,49.709531973886506,1.9376091860334723,0.0029984118911317004
1.9890000000000012,7232.22746925307,4.892375369140355,5112804.666465114,293.6069961710062,3170.9947481970066,49.570007918232875,1.9402079729574921,0.0030554163333492827
2.0290000000000012,7229.334154584938,4.921949601914508,5107755.03790504,293.56334531158234,3175.353950106528,49.43061610834635,1.9427998912566087,0.003112248729815731
2.0690000000000013,7219.767919276661,4.951615874993716,5102701.085290924,293.5196237942609,3178.7153929984274,49.29135652748409,1.9453849248880504,0.0031689103298707944
2.1090000000000013,7204.9993351842,4.9822839636682,5097642.801633671,293.4758314217781,3181.6147886840185,49.152229337460106,1.9479630543684738,0.0032254023106686055
2.1490000000000014,7190.273205059658,5.012480143212787,5092579.2590946,293.43196001474223,3184.464602588585,49.013210701487324,1.950534759183875,0.003281733308587178
2.1890000000000014,7175.702930882935,5.0426932834238976,5087510.362380973,293.388008590227,3187.3147025179364,48.87429861868492,1.9531000626049033,0.003337905093215777
2.2290000000000014,7161.1882579716685,5.073055294748086,5082436.129632253,293.3439771468585,3190.177153554019,48.73549405627263,1.9556589263853108,0.003393918493552735
2.2690000000000015,7146.772952814738,5.103509296446213,5077356.529690023,293.29986525487095,3193.04676484062,48.596796703965126,1.958211339052375,0.0034497747221255296
2.3090000000000015,7132.436202243848,5.134082505739716,5072271.553372668,293.25567267413015,3195.926015990164,48.4582068300807,1.9607572773698787,0.003505474797798277
2.3490000000000015,7118.186177000242,5.16476401527664,5067181.181267663,293.21139907462714,3198.8139107372217,48.319724444170376,1.963296723682163,0.003561019805976233
2.3890000000000016,7104.0181146274435,5.1955601438645385,5062085.398228977,293.167044162367,3201.711022337089,48.1813496732206,1.9658296581259023,0.003616410782311712
2.4290000000000016,7089.933027207078,5.22646946802934,5056984.186879079,293.12260762288037,3204.6172187264688,48.04308259326095,1.9683560620999097,0.003671648764997346
2.4690000000000016,7084.396018363522,5.2574940434126285,5051877.53051375,293.07808914647524,3206.6219711188664,47.904923304451394,1.970875916711032,0.0037267347718380607
2.5090000000000017,7081.505891137896,5.288918214901304,5046765.411811292,293.03348841698767,3208.333726501669,47.766871897718644,1.9733892034539255,0.0037816698107501043
2.5490000000000017,7078.743647682788,5.320230920510916,5041647.538192604,292.98880271285583,3210.037929971968,47.62892141952453,1.9758960477207543,0.003836457025508535
2.5890000000000017,7076.125805639861,5.3516883651479095,5036523.9131946815,292.94403189240273,3211.7489680860767,47.49107254480398,1.9783964186777865,0.003891097208176653
2.629000000000002,7073.664081198191,5.383257973237046,5031394.510316816,292.89917555059213,3213.4651308208577,47.35332518450954,1.980890301280546,0.003945591372438409
2.669000000000002,7071.357999937083,5.414953201174392,5026259.313337258,292.85423337097734,3215.1871133775985,47.21567951962963,1.9833776751465757,0.003999940437984829
2.709000000000002,7069.212290211546,5.446770118643792,5021118.301607498,292.8092049971929,3216.9147092820635,47.07813562474269,1.9858585222227225,0.004054145345425889
2.749000000000002,7067.229828194843,5.478711769385484,5015971.455917468,292.7640900842275,3218.6480734149072,46.9406936178671,1.9883328237307758,0.004108207010916024
2.789000000000002,7065.414397703372,5.51077842046831,5010818.75615973,292.7188882779671,3220.387216678779,46.80335360086604,1.9908005613719597,0.0041621263444317
2.829000000000002,7062.2460966180415,5.542971453401866,5005660.182256362,292.6735992232972,3221.9445501914515,46.66611568303399,1.9932617168433804,0.004215904242814412
2.869000000000002,7053.091816050797,5.575402580064599,5000495.713794023,292.62822256088873,3222.7791644408803,46.5289799718106,1.9957162720204618,0.004269541592760608
2.909000000000002,7043.4006066150605,5.608272008619621,4995325.2272336995,292.58275702295686,3223.618686886816,46.39194398174563,1.998164260895498,0.004323040047101538
2.949000000000002,7033.938303823228,5.640838347320146,4990148.340546581,292.5371990618597,3224.4509300056166,46.25499874882428,2.000605846803261,0.00437640317899281
2.989000000000002,7024.430263999923,5.67370201579144,4984965.169999332,292.4915495088698,3225.290006960312,46.118147896766104,2.0030409404052505,0.004429630774443798
3.029000000000002,7014.9665415694635,5.7066465456847135,4979775.643947439,292.4458075407782,3226.1299205922273,45.98139031989726,2.0054695472826363,0.004482724026296003
3.069000000000002,7005.520051409244,5.7397436614239625,4974579.75288289,292.39997287992264,3226.9711540338603,45.844726483309856,2.007891641691058,0.004535683648074555
3.109000000000002,6996.104268732923,5.77296888052707,4969377.468231446,292.3540450791892,3227.8152139952817,45.70815638028355,2.0103072074103343,0.0045885104846207165
3.1490000000000022,6986.710012686839,5.806337688351908,4964168.770699474,292.3080237718882,3228.6624274274855,45.57168024335698,2.0127162235603895,0.004641205300348529
3.1890000000000023,6976.8990441459455,5.839844118253249,4958953.634756076,292.2619085348012,3229.4830705090058,45.43529815596839,2.015118672321374,0.004693768894843784
3.2290000000000023,6957.631196553026,5.873507992246365,4953732.036674653,292.2156989591439,3229.654921324275,45.29901025359609,2.017514534931071,0.004746202043255597
3.2690000000000023,6938.275598226468,5.907656011733931,4948503.937343519,292.169394498316,3229.8241744823617,45.16281629710495,2.01990380008981,0.0047985056222020145
3.3090000000000024,6919.646812202054,5.941565998191017,4943268.997415052,292.12299194139695,3229.9928517288436,45.02670862679841,2.022286602297507,0.004850682679521117
3.3490000000000024,6901.382136243557,5.975751347412911,4938027.300833873,292.07649182349354,3230.1627560051047,44.89069010409678,2.0246628686019954,0.004902733151190344
3.3890000000000025,6883.560322376276,6.010050092073238,4932778.7879519705,292.02989340586123,3230.3331807790046,44.754760036976954,2.0270325960820466,0.004954658011322115
3.4290000000000025,6866.13992442644,6.044507194320609,4927523.437801565,291.98319629098916,3230.50433145597,44.61967002100955,2.0294163360883846,0.005006457941961986
3.4690000000000025,6850.026541192742,6.076072390635477,4922261.219324656,291.93639999009935,3230.6529035670815,44.489928232079016,2.0319376982502484,0.005058137347189496
3.5090000000000026,6840.52678636504,6.0865441278646815,4916992.335364425,291.8895060952206,3230.6403681164106,44.360256787518,2.0344520169539853,0.005109720762298715
3.5490000000000026,6831.0012082467565,6.098262034430098,4911718.3958919635,291.84252874246454,3230.641171332824,44.23069471482735,2.03695846865528,0.005161196870880411
3.5890000000000026,6821.4056466599795,6.110131811673158,4906439.4711356135,291.79546838214014,3230.641476819371,44.101244427373494,2.0394570054811023,0.005212565428814192
3.6290000000000027,6811.708123374251,6.121877421673503,4901155.451328204,291.7483238593298,3230.6402202301056,43.97190408462135,2.0419476689954017,0.005263827469647693
3.6690000000000027,6801.56176304195,6.133627239403592,4895866.334037543,291.7010949740342,3230.6371327183524,43.84267438786933,2.0444304472165467,0.005314983257301885
3.7090000000000027,6792.164818202832,6.145344940479324,4890572.084378461,291.65378123533293,3230.562280839208,43.71355527583471,2.0469053440968197,0.0053660332812987795
3.7490000000000028,6783.719683437316,6.1570716758247634,4885272.675111135,291.60638221897534,3230.3888680465648,43.58454687123332,2.0493723596554645,0.00541697797202288
3.789000000000003,6775.231745316861,6.168783697143278,4879968.049073064,291.55889723121976,3230.2147926647494,43.45564860035416,2.05183150829032,0.0054678179642999244
3.829000000000003,6766.765760454005,6.180431619315525,4874658.147726789,291.5113255635773,3230.041189075477,43.32685986603471,2.054282804680279,0.005518553895199185
