time,thrust,OF,ox_tank.pressure,ox_tank.temperature,combustion_chamber.temperature,propellant_mass,propellant_CG,combustion_chamber.fuel_grain.geometry.length_regressed
0.007,248.6249330346956,4.621255982657567,4946474.787031443,292.1514125490176,2777.3141459812296,56.43990690457265,1.8060057025680338,1.4415002321121792e-05
0.014,1147.8017725319928,4.3636524410345086,4945272.983828383,292.1407597339261,2870.7044026394337,56.40188192936337,1.8068090745969176,2.8754511469379978e-05
0.021,2396.164983685679,4.318696603759025,4944144.643786226,292.13075629585313,2897.4513474606356,56.36612376377584,1.8075609966551007,4.237416285940947e-05
0.028,3405.998975758683,4.289093078020449,4943084.498149446,292.1213558526509,2907.552831852448,56.3324719674955,1.8082653047380584,5.531842948033876e-05
0.035,4199.823530363683,4.269509614802606,4942084.288628861,292.11248545674664,2912.904593496809,56.300674023678454,1.8089278645235956,6.766226726035734e-05
0.042,4810.637414367088,4.258310441201078,4941135.2422151575,292.10406753332865,2916.678152528635,56.270461033357066,1.809554852050427,7.948772101091428e-05
0.049,5303.085136112531,4.253788037464243,4940228.811097123,292.09602644779693,2920.0367700523943,56.241570448635564,1.8101522462220998,9.087659968810407e-05
0.056,5653.478906747819,4.254148616327435,4939357.114914701,292.0882924367946,2923.335693793182,56.21375977816164,1.8107255311295998,0.00010190575933270932
0.063,5923.036464394328,4.2577255850035725,4938513.198973994,292.0808039079773,2926.6018730166825,56.186814683084236,1.8112795268235602,0.0001126440767604787
0.07,6128.830072452586,4.263168068244093,4937691.146047082,292.0735084408077,2929.7520678927713,56.160552568510866,1.8118183206613332,0.00012315087960198848
0.07700000000000001,6283.807778850023,4.269566554488278,4936886.07242714,292.0663627595906,2932.7231605300326,56.134822583239256,1.812345276957034,0.00013347561015178191
0.08400000000000002,6401.764993303711,4.2762513662113015,4936094.034969457,292.0593319153935,2935.4552052486933,56.10950283871066,1.8128631060356908,0.00014365848994111273
0.09100000000000003,6490.715516971448,4.282885897892897,4935311.919560026,292.0523883018418,2937.946213184593,56.08449702185034,1.8133739445194403,0.00015373146588120598
0.09800000000000003,6554.804893558461,4.289299943247941,4934537.3016057955,292.04551042134307,2940.200422095998,56.059730118529686,1.8138794534523124,0.00016371951753658108
0.10500000000000004,6602.211576357948,4.295434925379732,4933768.3152566785,292.0386817276961,2942.256497944103,56.03514438929876,1.814380909490545,0.00017364192825019764
0.11200000000000004,6637.150402887194,4.301289105798986,4933003.537165315,292.0318895968269,2944.143809824134,56.01069578379117,1.814879285477465,0.00018351344146709856
0.11900000000000005,6662.788594834784,4.3068919917142,4932241.889230826,292.02512446532324,2945.888526131774,55.986350936064895,1.8153753175968317,0.00019334524255427244
0.12600000000000006,6681.498206507814,4.3122834831867936,4931482.559045017,292.01837912556584,2947.5245072635153,55.962084704385205,1.8158695601401642,0.0002031457700681435
0.13300000000000006,6695.052057394166,4.3175036060871355,4930724.936753143,292.0116481661688,2949.0755646317402,55.937878217386455,1.8163624288794966,0.0002129213640367659
0.14000000000000007,6704.772383329028,4.3225884915374255,4929968.56590209,292.0049275362975,2950.561145240575,55.91371735248025,1.8168542347756107,0.00022267677298742902
0.14700000000000008,6711.644026380267,4.32756857670907,4929213.105592023,291.9982142101218,2951.996758135043,55.889591563943156,1.8173452098996439,0.0002324155456134503
0.15400000000000008,6716.658288324272,4.332468517553271,4928458.30163305,291.9915059310642,2953.091890725672,55.86549298976087,1.8178355271658229,0.00024214032988287152
0.1610000000000001,6720.103640027274,4.3373278320377855,4927703.964716865,291.98480101822094,2954.1151031714676,55.84141577570438,1.8183253152514292,0.000251853099704865
0.1680000000000001,6722.345786258758,4.342143358794689,4926949.95049487,291.97809818959416,2955.1203707994455,55.8173554590171,1.8188146721806353,0.0002615553615706773
0.1750000000000001,6723.695524932244,4.346923671499486,4926196.151137386,291.97139648727835,2956.111725043154,55.79330870664423,1.8193036711042505,0.0002712482426554237
0.1820000000000001,6724.383530490098,4.3516779604305285,4925442.486555208,291.9646951995913,2957.0927450930417,55.76927304342637,1.819792366290642,0.00028093258215433907
0.1890000000000001,6724.580972485636,4.356413134717129,4924688.897279708,291.9579937979,2958.0661101693545,55.74524663176101,1.8202807979791091,0.00029060900529400514
0.22900000000000012,6724.414846659919,4.361134387831117,4923935.3391655395,291.95129188961243,2959.0338254297467,55.7212281077032,1.8207689959889408,0.0003002779783818476
0.26900000000000013,6715.186155619327,4.369544044480982,4919622.893497411,291.9129232727065,2960.688421376889,55.58403888938671,1.8235560138154001,0.0003554406478039264
0.3090000000000001,6707.025288118893,4.396244443796642,4915306.362001807,291.8744925592803,2966.102595487204,55.44695072593535,1.8263388119761756,0.0004104135464329349
0.3490000000000001,6700.750173386989,4.422227989351915,4910986.018263537,291.8360020786505,2971.3823201954037,55.30997198826774,1.8291171755050974,0.00046519556200975087
0.38900000000000007,6693.576610125466,4.4495649832174,4906662.830886083,291.79746036458835,2976.9302837925143,55.17313222828255,1.831890428047094,0.0005197785925998037
0.42900000000000005,6687.039764836262,4.476201109200123,4902336.296218838,291.7588628352279,2982.3375284383064,55.03641593641798,1.8346588797012326,0.0005741694580104858
0.46900000000000003,6680.17870966476,4.503350919341249,4898006.736858368,291.72021227480826,2987.8452354615765,54.89983286199898,1.837422289173582,0.0006283665998731116
0.509,6673.582707972835,4.53025715809221,4893673.958591767,291.68150685674277,2993.3030886401916,54.763376996845025,1.8401807597763444,0.0006823736311738298
0.549,6666.888143683469,4.557389529659963,4889338.084940615,291.6427475907144,2998.804285808665,54.627052021769266,1.8429341840606202,0.0007361909533643629
0.5890000000000001,6660.317509154003,4.584457907891115,4884999.043163307,291.6039337328777,3004.291305724487,54.49085565861992,1.8456825849719276,0.0007898208983177161
0.6290000000000001,6653.73310206689,4.611642657369252,4880656.880978523,291.5650656159705,3009.7999029762977,54.354789296850285,1.8484259061591568,0.0008432645742846288
0.6690000000000002,6648.45178405526,4.638833007724597,4876311.571560964,291.5261429056434,3014.7743842798523,54.21885207561294,1.851164140730645,0.0008965238005336325
0.7090000000000002,6645.663427845424,4.666259554210317,4871963.133549786,291.4871656742523,3018.6090667421895,54.083044519622575,1.8538972522080288,0.0009495999226638803
0.7490000000000002,6642.511681798977,4.693863675645866,4867611.406515077,291.4481323875798,3022.4625235115313,53.947361769298226,1.8566253212043868,0.0010024960022945112
0.7890000000000003,6639.611516129017,4.721177713155672,4863256.143917385,291.40904073401475,3026.275184832983,53.81179641730506,1.8593484834647886,0.0010552158827914267
0.8290000000000003,6636.693462413495,4.748724550090754,4858897.465607201,291.3698916875634,3030.1179927663675,53.67635210610415,1.8620666358572555,0.0011077598164385507
0.8690000000000003,6633.916496409441,4.776219646689145,4854535.300809163,291.33068451091066,3033.952502609797,53.54102675326341,1.8647797995588542,0.0011601298793398834
0.9090000000000004,6631.191185608951,4.803828439380266,4850169.688793728,291.29141945477625,3037.8010712292703,53.40582158975701,1.867487924584601,0.0012123270628667
0.9490000000000004,6628.568896729254,4.831456762997399,4845800.605628951,291.25209620147507,3041.6509891760493,53.270735960015344,1.8701910021117567,0.0012643529434972656
0.9890000000000004,6626.021203322584,4.859159388828691,4841428.063118514,291.21271475435884,3045.5096527506444,53.13577028651674,1.8728890004941752,0.0013162087338300004
1.0290000000000004,6623.5648870796695,4.886905729833396,4837052.052348824,291.1732749299502,3049.372941338146,53.00092438070911,1.8755819016627577,0.0013678958225323994
1.0690000000000004,6621.191230456916,4.914714040583953,4832672.575859494,291.1337766475424,3053.2433202790053,52.86619840380064,1.878269680427109,0.0014194154685598895
1.1090000000000004,6615.507192368141,4.942574666768214,4828289.629346745,291.0942197643666,3056.6088706604332,52.73159232098997,1.8809523162050434,0.0014707689750045746
1.1490000000000005,6603.223505140005,4.970960548307617,4823903.212063546,291.05460416933727,3059.135934859085,52.59710621099518,1.883629786363018,0.001521957591303605
1.1890000000000005,6590.016911337403,4.999626432423993,4819512.907964678,291.01492599637146,3061.6766448898593,52.46272787797041,1.8863023311225415,0.001572986402438002
1.2290000000000005,6577.435238070474,5.027613787670062,4815118.190174749,290.9751803658985,3064.1580914942106,52.32844194036625,1.8889702579146999,0.0016238614370800478
1.2690000000000006,6564.6898117006995,5.056002641375876,4810719.287962201,290.93536923036277,3066.6727691314422,52.19425541377209,1.8916333951681585,0.0016745816649937043
1.3090000000000006,6552.135095861976,5.084302867779942,4806316.088344802,290.89549144687385,3069.1787330919283,52.06016520405659,1.8942917877620378,0.0017251492119494483
1.3490000000000006,6539.610372802614,5.1127379215246584,4801908.632985167,290.855547271283,3071.6950985681488,51.92617278895898,1.8969453832762366,0.0017755647577248873
1.3890000000000007,6527.18638794964,5.141207421538383,4797496.893440281,290.8155363240477,3074.2132827463943,51.7922775880663,1.8995941735028357,0.001825829609784898
1.4290000000000007,6514.830301017483,5.169757418568604,4793080.872456764,290.77545850763994,3076.737060290669,51.65847994601884,1.9022381308353082,0.0018759447728326972
1.4690000000000007,6502.555424431421,5.198368037731715,4788660.558485949,290.73531359429853,3079.2626959641625,51.524779795003724,1.9048772367442124,0.001925911365389232
1.5090000000000008,6490.353512382461,5.227049551755253,4784235.9459981695,290.6951014102579,3081.793233604562,51.39117725103374,1.9075114690867858,0.001975730434893341
1.5490000000000008,6485.579831103074,5.255796981222549,4779807.025927986,290.65482174900893,3083.5301457187657,51.257672333928,1.910140808047706,0.00202540304467471
1.5890000000000009,6483.100239985556,5.284854420391156,4775373.791023764,290.61447441988645,3085.0069514108673,51.1242651236807,1.9127652328155884,0.002074930225915166
1.629000000000001,6480.72042149339,5.31376895524338,4770936.030498154,290.5740573772364,3086.4752214319815,50.99094979506257,1.9153848474831088,0.002124314803216005
1.669000000000001,6478.453280441008,5.342777960735876,4766493.752767599,290.5335705680477,3087.9474030129095,50.85772692538363,1.9179996208367245,0.002173557617374561
1.709000000000001,6476.30805442327,5.371850370971071,4762046.9430233175,290.4930137271634,3089.4219757706805,50.72459642325328,1.9206095360497661,0.0022226597016072247
1.749000000000001,6474.28351840492,5.400998235870247,4757595.594215681,290.4523866594185,3090.8995203307363,50.59155842959309,1.9232145716439977,0.0022716220056538824
1.789000000000001,6472.3829065241025,5.430217498225036,4753139.695903583,290.41168913800846,3092.379839523041,50.458612993912254,1.9258147083121206,0.0023204454949514947
1.829000000000001,6470.607806516994,5.459510550772606,4748679.238700507,290.37092094502617,3093.8630473574303,50.32576020309979,1.9284099261986243,0.0023691311115701555
1.869000000000001,6468.960553272075,5.4888772075945145,4744214.212503653,290.33008185528956,3095.349133358043,50.193000130141854,1.9310002059730855,0.0024176797900294974
1.9090000000000011,6467.443302368005,5.518318310685404,4739744.607199354,290.2891716427732,3096.8381365740624,50.06033285444916,1.9335855283973944,0.0024660924513325434
1.9490000000000012,6463.578667510524,5.547834296107814,4735270.412386516,290.2481900780701,3098.022272401416,49.92775845383836,1.936165874488558,0.002514370005596528
1.9890000000000012,6455.605160627579,5.577607992563404,4730791.617487493,290.20713692939444,3098.7250057562856,49.79527700768007,1.9387412254473495,0.002562513351298178
2.0290000000000012,6447.341553566423,5.6075298888985445,4726308.064914903,290.16601061522977,3099.4269995821383,49.66288440197806,1.9413116500602627,0.0026105246310824948
2.0690000000000013,6439.218761478905,5.637269013491591,4721819.569228025,290.12480929362863,3100.1248763943004,49.53057576294114,1.9438772326686504,0.0026584061930049743
2.1090000000000013,6431.078672472253,5.667188528501399,4717326.188694316,290.08353335670915,3100.826352576402,49.39835319580836,1.9464379122313145,0.0027061582819602123
2.1490000000000014,6422.973296035221,5.697154267283784,4712827.886761299,290.04218232565114,3101.5258128137,49.26621610366125,1.9489936841991193,0.0027537819414565003
2.1890000000000014,6414.883569424784,5.727212732908467,4708324.658200175,290.0007560083887,3102.226968074683,49.13416478967415,1.951544525477759,0.002801277936104411
2.2290000000000014,6406.816697361431,5.757347470852312,4703816.486411873,289.95925410746827,3102.929470157976,49.00219924003999,1.9540904197384397,0.002848647115079366
2.2690000000000015,6398.769941805971,5.787565562279109,4699303.359101944,289.91767636412345,3103.633471663834,48.87031956992889,1.9566313481513036,0.002895890279488107
2.3090000000000015,6390.743770207736,5.8178654676843635,4694785.262270668,289.87602250298664,3104.3389360829897,48.738525852704086,1.9591672929240844,0.0029430082333004783
2.3490000000000015,6380.137844925361,5.848248443175278,4690262.182174234,289.83429225012725,3104.857414486297,48.60681817553644,1.9616982361453854,0.002990001767006787
2.3890000000000016,6363.938658179812,5.8788160553541795,4685734.104709449,289.7924853273721,3104.98293881129,48.47519662196228,1.964224160141259,0.003036871662936101
2.4290000000000016,6347.446556447827,5.909562185518815,4681200.937411547,289.7506007313157,3105.106209217244,48.34365908086307,1.9667450925062802,0.0030836193377037874
2.4690000000000016,6331.071987999239,5.940188377860789,4676662.530997264,289.7086369299211,3105.2292993608858,48.21220186932252,1.9692610929983911,0.0031302466536059503
2.5090000000000017,6314.644498467524,5.9709733372234925,4672118.9209447,289.666594096769,3105.352906243465,48.08082650885346,1.9717721144127915,0.0031767539357275055
2.5490000000000017,6298.226206791157,6.001825932184916,4667570.077269076,289.62447179940744,3105.476710609174,47.94953268837269,1.9742781473618172,0.00322314203802369
2.5890000000000017,6281.812915397904,6.03277135681689,4663015.987627954,289.5822697675203,3105.6008066406257,47.81832059827008,1.9767791723003054,0.003269411659287133
2.629000000000002,6265.416862163258,6.063804221375792,4658456.6350516025,289.53998768692674,3105.7251697160095,47.687190305925405,1.979275172339893,0.0033155635259930123
2.669000000000002,6249.046213253568,6.094926526755958,4653892.003372291,289.4976252498218,3105.8498053527087,47.55614190770225,1.9817661301296037,0.0033615983480442717
2.709000000000002,6232.709812074075,6.1261385851587695,4649322.075974893,289.4551821431899,3105.9747119434883,47.4251754940274,1.9842520285669754,0.0034075168290773608
2.749000000000002,6220.052022118712,6.157441082348363,4644746.836072418,289.41265805134515,3105.868069764604,47.294291157079094,1.9867328506372546,0.003453319664351162
2.789000000000002,6210.829117669958,6.188947928944547,4640166.266647698,289.37005265537624,3105.5621776719936,47.1634889891639,1.9892085794429508,0.0034990075413410915
2.829000000000002,6201.880046181745,6.220513953362843,4635580.266321857,289.3273648497189,3105.253394453378,47.03276676003282,1.9916792452585386,0.0035445818074371633
2.869000000000002,6192.9748505035905,6.252104276648222,4630988.77479328,289.2845939081383,3104.9447193457668,46.90212339424153,1.9941448548300393,0.003590043466085668
2.909000000000002,6184.077737190476,6.283812867006643,4626391.790887202,289.24173965347046,3104.635099466347,46.77155945776748,1.996605381713452,0.0036353930408482135
2.949000000000002,6175.196538689488,6.315610421424131,4621789.291905641,289.1988017069944,3104.324814074348,46.64107492880381,1.99906081148083,0.003680631217092187
2.989000000000002,6166.329619482877,6.347504172765196,4617181.259869087,289.15577973276294,3104.0137973839,46.51066992231715,2.001511127036152,0.00372575863381847
3.029000000000002,6157.476880261946,6.379493689101268,4612567.675710678,289.11267338349523,3103.702049498707,46.380344529982345,2.0039563118514603,0.003770775929711145
3.069000000000002,6148.638069672691,6.41157973463355,4607948.52023516,289.0694823095013,3103.389561468375,46.250098846600004,2.0063963494296724,0.0038156837356721485
3.109000000000002,6140.230875383474,6.443762968287363,4603323.774017156,289.0262061577179,3103.063264483443,46.11993296731312,2.0088312233576784,0.003860482675721779
3.1490000000000022,6141.6402359211415,6.4760492861318095,4598693.417398225,288.9828445716653,3102.4342908720987,45.98984698754336,2.0112609173045253,0.0039051733671182968
3.1890000000000023,6143.278968853868,6.50854979320185,4594057.426728814,288.9393971561985,3101.7999135962264,45.8598409008962,2.0136854170586935,0.00394975644930735
3.2290000000000023,6145.268089344132,6.541015929802708,4589415.696203638,288.8958627439772,3101.166748286563,45.729912479999115,2.0161047527932396,0.003994233181485028
3.2690000000000023,6147.6251927738185,6.573620421093432,4584768.2324433215,288.85224121956645,3100.53134725916,45.60006256469562,2.0185188933642593,0.0040386039480720315
3.3090000000000024,6150.358646672732,6.606319605961916,4580115.00945159,288.8085321605099,3099.894510565543,45.47029111474775,2.0209278253004386,0.0040828693761080495
3.3490000000000024,6153.485529473234,6.639120995573748,4575456.006540445,288.76473519280177,3099.2561100697408,45.34059824085513,2.023331532187428,0.004127030043839591
3.3890000000000025,6157.021655172175,6.672024984910555,4570791.20239335,288.7208499351964,3098.616133081474,45.21098404346206,2.0257299978846945,0.004171086526334343
3.4290000000000025,6160.984209922519,6.7050320632394795,4566120.575345509,288.676876001817,3097.973345715186,45.08144862041192,2.028123206369551,0.0042150393934027
3.4690000000000025,6165.390566060344,6.73814405186047,4561444.103543588,288.63281300364014,3097.3269707334616,44.95199207128707,2.0305111416481867,0.004258889208466008
3.5090000000000026,6154.62669197549,6.771361258998624,4556761.764146692,288.58866054094307,3096.489154338288,44.822614476026445,2.0328937881750835,0.004302636534600528
3.5490000000000026,6140.231360174541,6.804739457210478,4552073.5337485615,288.5444182072444,3095.6024677120186,44.693315906423585,2.0352711306206377,0.004346281931374568
3.5890000000000026,6125.917712844107,6.838174400240276,4547379.350364305,288.5000852301285,3094.71474020218,44.5640954118704,2.0376431738136,0.004389826236404157
3.6290000000000027,6111.675025051362,6.871717836479366,4542679.193715076,288.4556612289285,3093.8247746139273,44.43495316720283,2.040009900402557,0.004433269967869031
3.6690000000000027,6097.500248255173,6.905370669788473,4537973.041691299,288.4111458042764,3092.9325121388356,44.305889304980724,2.0423712939237784,0.004476613650313541
3.7090000000000027,6083.393902754374,6.93913126071357,4533260.870533789,288.36653853974167,3092.0379984919628,44.17690392071733,2.044727338689477,0.00451985781317479
3.7490000000000028,6069.355130055781,6.973001015909939,4528542.656722589,288.3218390196624,3091.141197208581,44.04799712329138,2.047078018794402,0.0045630029768736445
3.789000000000003,6055.383322740361,7.006980560661743,4523818.376409139,288.2770468237586,3090.242091327905,43.9191690198527,2.049423318409894,0.004606049657073482
3.829000000000003,6041.477868949734,7.041070617571341,4519088.005496475,288.2321615278718,3089.34066179619,43.79041971799653,2.051763221738778,0.004648998364150992
