time,thrust,OF,ox_tank.pressure,ox_tank.temperature,combustion_chamber.temperature,propellant_mass,propellant_CG,combustion_chamber.fuel_grain.geometry.length_regressed
0.007,246.0641829353824,5.419442627060449,4901674.91148444,291.75296025157115,2804.501799184416,54.522655913596076,1.8741484618875748,1.287645557912831e-05
0.014,1055.1602424686807,5.1307443044295145,4900456.738544557,291.7420869729965,2941.848487826626,54.485607304241796,1.8749362866991202,2.569100634009948e-05
0.021,2266.682845261155,5.0650926087363155,4899309.423881219,291.7318442802664,2983.785274391347,54.450655348255566,1.8756759244940773,3.7922948221080736e-05
0.028,3249.6496727578538,5.017941799791626,4898228.696481496,291.72219437254535,3004.7314858881577,54.41767551979711,1.8763704239732166,4.960054711121119e-05
0.035,4018.0524300786706,4.98278351343843,4897206.925150763,291.71306939355765,3016.9934828956325,54.38644417946844,1.877025053828849,6.078075559078747e-05
0.042,4636.604350259283,4.9581416954470345,4896235.868385952,291.7043959762968,3024.9156291010463,54.356719210081934,1.8776454497630284,7.152747592379256e-05
0.049,5110.665532066231,4.942157421803222,4895307.388722887,291.6961016267938,3030.4370550805274,54.32826103835238,1.8782371385315806,8.190564924180188e-05
0.056,5470.899839785605,4.933210351632749,4894413.927094553,291.68811896852617,3034.53265912751,54.300846703176745,1.878805227066321,9.197700897799381e-05
0.063,5750.418372074456,4.929462855391849,4893548.715321889,291.68038764912825,3037.576086083382,54.27427625142447,1.8793542680803998,0.0001017978916795698
0.07,5961.621431038667,4.929660576642855,4892705.913092552,291.6728555725562,3040.145135437795,54.24837691456024,1.879888176205013,0.0001114176614454546
0.07700000000000001,6121.359344322805,4.931768259946433,4891880.5748027945,291.6654786103689,3042.3048978445663,54.2230022395221,1.8804102563122376,0.0001208786406131345
0.08400000000000002,6240.942083889451,4.935244698764697,4891068.741335457,291.65822142884963,3044.022395689498,54.19803489092894,1.8809231481816457,0.00013021502541928117
0.09100000000000003,6330.353857849669,4.939371005143986,4890267.255095061,291.6510558417931,3045.417826912355,54.17338123399105,1.8814289530981692,0.00013945428730094048
0.09800000000000003,6397.634450195515,4.943785655089721,4889473.658129984,291.6439599045807,3046.5750291966283,54.14896835110609,1.881929304239306,0.00014861792768295674
0.10500000000000004,6447.604581532795,4.948635441801991,4888686.063496299,291.6369167679984,3047.5789180066354,54.12474024882877,1.8824254538022174,0.0001577225207365392
0.11200000000000004,6484.455521577595,4.9536148929387025,4887902.983163486,291.6299131423322,3048.4512032406783,54.10065276767652,1.882918387981728,0.00016678117590812266
0.11900000000000005,6511.465837451327,4.958614628526625,4887123.274255451,291.6229388187787,3049.213017648837,54.076671990568144,1.8834088634254005,0.00017580398391319689
0.12600000000000006,6531.1015635335225,4.963603839237764,4886346.06927805,291.61598604718154,3049.891964637497,54.052772174132166,1.8838974539385644,0.00018479861622041737
0.13300000000000006,6545.217247832351,4.968570052636408,4885570.712486493,291.6090489682134,3050.509353206346,54.028933860866715,1.8843845929002412,0.00019377087837255577
0.14000000000000007,6555.204877586941,4.9735104706734425,4884796.709775532,291.6021231661335,3051.0798008762963,54.00514239177399,1.8848706066023893,0.0002027251485592797
0.14700000000000008,6562.10738186118,4.978426905041031,4884023.689724753,291.5952053210422,3051.6146462415218,53.98138674977929,1.8853557401284105,0.00021166472010365457
0.15400000000000008,6566.705332271017,4.983322906490373,4883251.373623332,291.5882929412497,3052.122596992919,53.957658669636515,1.885840177241883,0.00022059206582332534
0.1610000000000001,6569.582482422902,4.9882023828658895,4882479.55259839,291.58138415903676,3052.6102943778255,53.93395195875119,1.8863240555464358,0.00022950904016645184
0.1680000000000001,6571.175146179284,4.9930689644239665,4881708.070263019,291.57447757568303,3053.082777477432,53.91026198193672,1.8868074779769075,0.00023841703277460984
0.1750000000000001,6571.809303461859,4.997925762936363,4880936.809607392,291.5675721443741,3053.5438549952464,53.886585272205096,1.8872905214738092,0.0002473170845904034
0.1820000000000001,6571.728430754122,5.0027753265444455,4880165.683126268,291.56066708200547,3053.996397420311,53.86291923769088,1.8877732435116494,0.0002562099753371875
0.1890000000000001,6571.114345740509,5.007619683119247,4879394.625400975,291.55376180290517,3054.442563540131,53.83926194147915,1.888255687001032,0.00026509628925849084
0.22900000000000012,6570.102803724692,5.012460416366539,4878623.587535138,291.54685586911245,3054.8839743480435,53.81561193648673,1.88873788396355,0.0002739764644254166
0.26900000000000013,6559.007112344238,5.021470090495136,4874210.674208435,291.50731482056347,3055.603146184583,53.68052212223915,1.8914904582319558,0.00032464461004883867
0.3090000000000001,6547.110713024932,5.048349728825646,4869793.0909537515,291.4677045676445,3057.981973076193,53.545514245649336,1.8942384256686595,0.0003751596224551209
0.3490000000000001,6534.515066036637,5.076354198197998,4865371.633539222,291.42803212679735,3060.4556340304125,53.41061192986683,1.896981242239601,0.00042551575555416064
0.38900000000000007,6522.345882800224,5.103939229892084,4860945.960507434,291.3882943192373,3062.892480843857,53.275805356217134,1.8997191037205934,0.00047571715559869773
0.42900000000000005,6510.102189619037,5.131779310691158,4856516.215476645,291.348492317273,3065.349840233495,53.14109895839171,1.902451891514938,0.0005257637390931698
0.46900000000000003,6498.0053675997,5.159572168542287,4852082.324528429,291.3086253397544,3067.802034604947,53.00649080027761,1.9051796278711601,0.0005756572835712436
0.509,6485.955924911089,5.187453762039491,4847644.310455559,291.2686934737579,3070.2606107273714,52.87198178472791,1.9079022728414217,0.0006253987149185304
0.549,6473.996439115183,5.215364137925782,4843202.152731821,291.22869641634617,3072.7204811442425,52.73757155639706,1.9106198144958024,0.0006749893118418246
0.5890000000000001,6465.172685898395,5.243330618890648,4838755.849700896,291.18863403373933,3074.8502404941987,52.60326031832819,1.9133322289607104,0.0007244301735907664
0.6290000000000001,6462.790156190073,5.271441408032692,4834305.39105855,291.14850611370235,3076.278830872984,52.46904802926535,1.9160394980429525,0.0007737224550431835
0.6690000000000002,6460.26856953112,5.299696660755996,4829850.685634101,291.1083117134191,3077.7098441552153,52.33493231408467,1.918741654829168,0.0008228679708567621
0.7090000000000002,6457.92353400971,5.327801004201739,4825391.581826975,291.06804934151245,3079.1329834250014,52.2009090732453,1.9214387700556876,0.0008718690119035924
0.7490000000000002,6455.662248743561,5.356040889509191,4820928.131543572,291.0277193417761,3080.561897498642,52.066980115762895,1.9241307855619272,0.0009207261412675134
0.7890000000000003,6453.5229669512,5.384298295400504,4816460.301272728,290.9873212862692,3081.9909451236317,51.93314478493263,1.9268176973193252,0.0009694406210433127
0.8290000000000003,6451.492821011095,5.412621455138367,4811988.091558501,290.9468550540069,3083.422431346502,51.79940341575662,1.929499479948587,0.0010180134130361106
0.8690000000000003,6449.579087680131,5.440991688365184,4807511.489030155,290.90632039753314,3084.8554628939205,51.66575594884076,1.9321761169326697,0.0010664455788335155
0.9090000000000004,6447.781261104983,5.469417099479285,4803030.485556901,290.865717116098,3086.2904265289044,51.532202482897844,1.9348475885799798,0.0011147381210657704
0.9490000000000004,6446.101946289618,5.497895119030716,4798545.070638856,290.8250449868017,3087.727198863966,51.39874305552921,1.9375138767848474,0.0011628920465992438
0.9890000000000004,6444.542635671827,5.526427409665941,4794055.23441967,290.78430379186125,3089.1658586682665,51.26537772979201,1.9401749631411644,0.00121090834198346
1.0290000000000004,6439.084948091402,5.555013962014887,4789560.966502951,290.74349330787607,3090.1069155340183,51.1321065601596,1.9428308296744132,0.0012587879834202484
1.0690000000000004,6431.09644422209,5.58394844540262,4785062.256418665,290.7026133100464,3090.785033141923,50.99892960583303,1.9454814585472675,0.0013065319332018722
1.1090000000000004,6423.060897226069,5.612759315537315,4780558.856641898,290.6616614163946,3091.4582477170693,50.86584018838262,1.948126977188989,0.001354143043108461
1.1490000000000005,6415.078696016129,5.641573897134718,4776050.721458083,290.620637075162,3092.1313069068246,50.73283741226096,1.9507673881523766,0.0014016225073097746
1.1890000000000005,6407.108100173433,5.670471592404956,4771537.856524731,290.5795402008937,3092.805810084518,50.599921851825385,1.9534026625400858,0.0014489710928237678
1.2290000000000005,6399.162729298588,5.699419624216976,4767020.243244763,290.5383704866681,3093.4810513827383,50.46709339823127,1.9560327863720974,0.001496189748053554
1.2690000000000006,6391.237720637926,5.728429760154706,4762497.871072323,290.49712769802426,3094.1572842160936,50.33435217809483,1.958657740813123,0.0015432793438274535
1.3090000000000006,6383.3343501659765,5.757498788981586,4757970.726555009,290.4558115731813,3094.8333090629226,50.201698242324184,1.9612775088541325,0.001590240761198591
1.3490000000000006,6375.451109755275,5.7866289373435515,4753438.796898753,290.4144218555078,3095.5086983259316,50.0691316671407,1.963892073139301,0.0016370748632601856
1.3890000000000007,6367.587472547066,5.81581996506975,4748902.068379863,290.37295827902045,3096.1850276722594,49.93665250918271,1.9665014169216966,0.0016837825078920314
1.4290000000000007,6358.046399997873,5.845071578142194,4744360.527082206,290.33142057509315,3096.734756245688,49.804260826339586,1.9691055236118016,0.0017303645421053782
1.4690000000000007,6342.6440668866635,5.874452984655999,4739814.159495524,290.28980847792405,3096.853415923603,49.671956694492756,1.9717043764169189,0.0017768217975912498
1.5090000000000008,6326.881475728921,5.904050615486543,4735262.899002072,290.2481212342099,3096.96950228378,49.53973870971596,1.9742979901301017,0.001823155504795273
1.5490000000000008,6311.248755007851,5.933479875246501,4730706.57253673,290.2063571122611,3097.085282404069,49.40760251028061,1.9768864422239099,0.0018693676963612792
1.5890000000000009,6295.549032009393,5.963053408694894,4726145.223931057,290.1645163654982,3097.2014470304766,49.2755498204023,1.9794696809906664,0.0019154587104140372
1.629000000000001,6279.850988632158,5.992669837947517,4721578.8214675225,290.1225985541965,3097.317677349223,49.143580256122334,1.9820476996360914,0.0019614294582563346
1.669000000000001,6264.147277820195,6.02235732788402,4717007.354075399,290.0806034269556,3097.4340681229896,49.01169401705662,1.984620479149815,0.0020072806808816923
1.709000000000001,6248.4499462804215,6.052109387113133,4712430.805179036,290.03853068088495,3097.5505933879253,48.87989115572986,1.9871880037867529,0.0020530131506028217
1.749000000000001,6232.766120827954,6.0819281825987375,4707849.159276273,289.9963800219557,3097.6672587236317,48.74817176106103,1.989750257179653,0.0020986276207110373
1.789000000000001,6217.103891528937,6.111813803613513,4703262.400354695,289.9541511504445,3097.7840619173676,48.61653591424516,1.9923072232674324,0.0021441248377426013
1.829000000000001,6201.744041790407,6.1417668242582115,4698670.512262121,289.9118437643255,3097.8824915291484,48.48498369904396,1.994858886074032,0.00218950553880467
1.869000000000001,6192.219530178795,6.1717966472497885,4694073.478622715,289.86945755848575,3097.591718333981,48.353515199447756,1.9974052297537883,0.00223477045235831
1.9090000000000011,6182.616044490855,6.202073639205654,4689471.276176321,289.8269921632295,3097.2959823994865,48.22213031637736,1.999946242420806,0.0022799203479890594
1.9490000000000012,6173.280334543414,6.232216397817735,4684863.749950079,289.78444599093336,3097.0019965126894,48.090825339942434,2.002481987690161,0.0023249569623534816
1.9890000000000012,6164.463959530273,6.262492291145479,4680250.929132948,289.741819151566,3096.7045753402153,47.95960164320431,2.005012422842494,0.002369880644949533
2.0290000000000012,6155.794015662437,6.292825349796617,4675632.785028328,289.6991112197685,3096.4060332056815,47.82845901211229,2.0075375384792866,0.0024146921672688272
2.0690000000000013,6147.138614684794,6.323231706078445,4671009.301350743,289.65632188367346,3096.1069235795085,47.69739758033187,2.010057318051037,0.0024593921989008553
2.1090000000000013,6138.497984056475,6.35370946634332,4666380.459694852,289.6134508106956,3095.8072601239182,47.566417429816255,2.012571746198474,0.002503981415677261
2.1490000000000014,6129.871811895897,6.384259486444238,4661746.241743591,289.57049766792574,3095.5070330077538,47.435518651401644,2.0150808074852087,0.002548460483440391
2.1890000000000014,6121.259840780497,6.414882228843169,4657106.628933062,289.5274621190174,3095.206235401318,47.304701335628934,2.0175844865856023,0.0025928300606366597
2.2290000000000014,6113.64181102848,6.445578190194587,4652461.602485461,289.4843438244773,3094.8741522124737,47.17396557365221,2.020082768262571,0.002637090798189714
2.2690000000000015,6114.748068015347,6.476360096684995,4647811.143409831,289.44114244165786,3094.2723160352907,47.043311457266626,2.022575637363788,0.0026812433396083937
2.3090000000000015,6116.057114987955,6.507310392681423,4643155.223691361,289.39785754280064,3093.6660522021907,46.91273884059805,2.0250630837250445,0.002725288384399644
2.3490000000000015,6117.680324385161,6.538223999470136,4638493.74963364,289.3544880873772,3093.0609834981265,46.78224581234983,2.0275451335320547,0.002769227092629277
2.3890000000000016,6119.628757151116,6.569245272146487,4633826.725157572,289.3110339407884,3092.4541848531185,46.65183311288531,2.0300217583749363,0.002813059911764004
2.4290000000000016,6121.910025552385,6.600337121721726,4629154.1255165115,289.2674947006428,3091.846347437362,46.521500713194015,2.0324929457776255,0.0028567874870098087
2.4690000000000016,6124.537921923463,6.631506274144646,4624475.930890881,289.22387000912545,3091.2373526060937,46.39124872396886,2.034958680471369,0.0029004104198271084
2.5090000000000017,6127.52524559367,6.662752768114433,4619792.120742076,289.180159500454,3090.627194854319,46.26107724302122,2.0374189475310875,0.002943929308530924
2.5490000000000017,6130.885729979577,6.694077015241887,4615102.674264099,289.13636280506546,3090.0158651107963,46.130986367504846,2.0398737321210514,0.002987344745146426
2.5890000000000017,6134.633791702812,6.725479576742914,4610407.570463956,289.09247955035005,3089.4033509652263,46.000976196094015,2.042323019447514,0.0030306573149325353
2.629000000000002,6131.582749094184,6.756960954370637,4605706.78811812,289.04850936022933,3088.7007437955867,45.87104682783466,2.0447667947794503,0.0030738675967807642
2.669000000000002,6117.740091490722,6.788548933470339,4601000.305781853,289.004451855227,3087.859637788391,45.741198362416625,2.0472050434402806,0.003116976163237603
2.709000000000002,6103.9214147706325,6.820230246567167,4596288.082813802,288.96030647461714,3087.016013998659,45.61143039592853,2.049637761017918,0.003159983712113646
2.749000000000002,6090.1880594474815,6.851954696486727,4591570.073609809,288.91607260921904,3086.1718028595587,45.4817424029822,2.0520649455499167,0.0032028909659109948
2.789000000000002,6076.516602005149,6.883770933626875,4586846.263921859,288.8717499421104,3085.3256813483285,45.35213469958101,2.0544865780638704,0.0032456984213977964
2.829000000000002,6062.9105249806125,6.915667252378417,4582116.630059459,288.8273380665076,3084.4779427691574,45.222607357244364,2.0569026445995098,0.003288406633368479
2.869000000000002,6049.3689242007185,6.947645766636563,4577381.149507269,288.78283658522963,3083.628536395949,45.093160485367406,2.059313130484244,0.003331016141034783
2.909000000000002,6035.891066610674,6.979707049695003,4572639.799497229,288.7382450972985,3082.777445072531,44.96379419331209,2.0617180210983546,0.0033735274779957917
2.949000000000002,6022.47636092284,7.011851544384043,4567892.556979463,288.6935631976467,3081.9246563407587,44.83450858967695,2.06411730188709,0.0034159411725068647
2.989000000000002,6009.12417574421,7.044079799527306,4563139.398689966,288.64879047773576,3081.070154938019,44.70530378411719,2.0665109583215986,0.003458257747088009
3.029000000000002,5999.727150898775,7.076392340741698,4558380.301130721,288.60392652535154,3080.0604903577723,44.57617988685253,2.0688989759064724,0.00350047771873043
3.069000000000002,5990.618092911898,7.108817404471125,4553615.240571119,288.55897092459963,3079.035316557674,44.44713700873842,2.071281340175984,0.0035426015989556453
3.109000000000002,5981.52160799773,7.141301525620964,4548844.174406446,288.5139230798067,3078.008887894221,44.31817477482191,2.073658046375315,0.0035846300185843056
3.1490000000000022,5972.430887036979,7.173876341806863,4544067.081951336,288.46878260042894,3076.9802355615107,44.189293391463664,2.0760290781673505,0.003626563453670584
3.1890000000000023,5963.345948308324,7.206537641450082,4539283.938301188,288.42354905457415,3075.949475911315,44.0604929614418,2.078394421318119,0.0036684024018201486
3.2290000000000023,5954.266826440672,7.239285921725478,4534494.718453753,288.378222007858,3074.9165963754904,43.93177359191252,2.0807540615385407,0.0037101473545001207
3.2690000000000023,5945.193252562471,7.272121947988458,4529699.397302531,288.3328010233274,3073.8815725323134,43.80313539424306,2.0831079844862055,0.003751798797160548
3.3090000000000024,5936.1251198587515,7.305046203263421,4524897.949454185,288.2872856597148,3072.842125098325,43.67457847929962,2.0854561758568253,0.0037933572105094174
3.3490000000000024,5927.056892344556,7.338064084468035,4520090.349277693,288.24167547188375,3071.7993599287493,43.54610295876895,2.087798621355876,0.003834823070243108
3.3890000000000025,5917.916060657369,7.371169091487275,4515276.567710837,288.1959699804753,3070.669160316614,43.41770886293712,2.0901353083127674,0.0038761968679461157
3.4290000000000025,5908.744267266093,7.404363576888631,4510456.577661164,288.1501687231091,3069.4973261955265,43.289396280367896,2.092466222923357,0.003917479075653429
3.4690000000000025,5899.576962157272,7.437648055062044,4505630.3522985,288.10427123820256,3068.323043539776,43.16116531359435,2.0947913511259983,0.00395867015722669
3.5090000000000026,5890.414086976908,7.471023447718581,4500797.864957039,288.0582770640373,3067.146283737089,43.03301607653409,2.0971106786524336,0.0039997705690975605
3.5490000000000026,5881.255392398777,7.5044904596530815,4495959.08879508,288.0121857355124,3065.9670220581907,42.904948685737786,2.099424191198501,0.004040780762555461
3.5890000000000026,5872.100707055019,7.538049591360389,4491113.996678153,287.9659967830111,3064.785241328812,42.77696325743709,2.101731874480011,0.004081701184554946
3.6290000000000027,5862.949849585144,7.571701410492643,4486262.5612234045,287.91970973280235,3063.6009221541503,42.64905990873474,2.1040337142074894,0.0041225322774753785
3.6690000000000027,5853.80263955071,7.605446479052744,4481404.754790888,287.8733241069359,3062.4140453488835,42.52123875743174,2.1063296960876428,0.004163274479223932
3.7090000000000027,5844.658898551523,7.639285360218144,4476540.549481421,287.82683942320034,3061.224591741697,42.39349992202552,2.1086198058214936,0.004203928223294366
3.7490000000000028,5835.4663284378785,7.673218619941858,4471669.917135085,287.7802551950867,3059.9697270088527,42.265843521725735,2.1109040291022056,0.004244493938820409
3.789000000000003,5826.260346111252,7.7072379526868104,4466792.829329237,287.73357093174707,3058.6814588158786,42.138269676457654,2.11318235161316,0.004284972050631282
3.829000000000003,5817.060758529534,7.741356197298707,4461909.263013766,287.6867861919803,3057.3903054763305,42.010778649060455,2.1154547562883597,0.004325362943903885
