time,thrust,OF,ox_tank.pressure,ox_tank.temperature,combustion_chamber.temperature,propellant_mass,propellant_CG,combustion_chamber.fuel_grain.geometry.length_regressed
0.007,234.96338165995263,5.938357301447025,3845523.4186199834,281.44673234374176,2733.8367041948027,58.1780747942144,1.9085285339294356,9.248885276170601e-06
0.014,825.6862855127481,5.5631412809393215,3844768.5485909376,281.4386477105447,2871.9734263298687,58.14532732546718,1.9091770655815772,1.8449130626340733e-05
0.021,1839.9228721717752,5.463176191125994,3844065.2247031564,281.43111407529085,2916.0344882765226,58.11474854767043,1.9097792259494977,2.7179940124163446e-05
0.028,2646.1442107406665,5.389417208798459,3843409.913851528,281.4240938103219,2938.2418344191537,58.08619247107754,1.9103383240862957,3.546572857716869e-05
0.035,3273.7607065399225,5.334019440233317,3842796.5215637316,281.41752180934714,2951.328990139383,58.059405290334055,1.9108599211010704,4.335594343071626e-05
0.042,3755.410389040004,5.2948045499210155,3842218.525201762,281.4113283349898,2959.7274752508897,58.03411442539054,1.911349918523597,5.0906382332576484e-05
0.049,4116.607377500064,5.269014498754081,3841669.582656538,281.4054455446966,2965.440462366786,58.010054066028665,1.9118140191344712,5.81734765189418e-05
0.056,4390.398640076667,5.253500161227453,3841143.902152771,281.39981145968636,2969.528424411199,57.986980861515605,1.912257405356687,6.521039614588454e-05
0.063,4594.289599597062,5.245289924685098,3840636.451978798,281.3943722193764,2972.531418685796,57.96468295695441,1.9126845617520336,7.206449742612823e-05
0.07,4745.107877402615,5.241917640531172,3840143.0334916655,281.3890828703375,2974.7899677753844,57.942983276968704,1.9130992184984421,7.877607818919947e-05
0.07700000000000001,4856.056378251921,5.241566404916959,3839660.2569047133,281.38390711250617,2976.509019643243,57.92173867332115,1.9135043794891997,8.537817076412556e-05
0.08400000000000002,4937.305079021761,5.2430070346130675,3839185.4558880036,281.3788163885215,2977.824329351396,57.90083643932411,1.913902402710359,9.189706000364737e-05
0.09100000000000003,4996.573395222452,5.245464060997447,3838716.575271751,281.37378868368273,2978.841914934221,57.88018964171735,1.914295102712295,9.835318241925701e-05
0.09800000000000003,5039.656712580786,5.248473670764777,3838252.0552869807,281.36880728782836,2979.6302849926137,57.85973227141974,1.9146838548519356,0.00010476214793677714
0.10500000000000004,5070.866030878591,5.251771761108931,3837790.72592439,281.363859664892,2980.2560441485725,57.839414799286935,1.9150696897181052,0.00011113572050338887
0.11200000000000004,5093.389983214891,5.255212296453869,3837331.7171138204,281.35893649144424,2980.7594964209416,57.819200387491044,1.915453373033484,0.0001174826775646069
0.11900000000000005,5109.574114451964,5.258718688110224,3836874.386052449,281.3540308786205,2981.1717684902956,57.799061819055545,1.9158354700925737,0.00012380951915625104
0.12600000000000006,5121.137578825683,5.262252068803755,3836418.2600777303,281.3491377603681,2981.516516619586,57.778979081514834,1.9162163962977017,0.0001301210327090581
0.13300000000000006,5129.337188613762,5.265793726318132,3835962.9928313154,281.3442534239504,2981.810180336781,57.75893751144264,1.916596455871046,0.00013642073034325384
0.14000000000000007,5135.089777980449,5.269335381450259,3835508.3311446593,281.33937515523695,2982.066385443864,57.73892639219311,1.916975871060202,0.00014271118124511677
0.14700000000000008,5139.063229583501,5.272873881049607,3835054.090299623,281.33450097367154,2982.296590567216,57.71893790603089,1.91735480393524,0.00014899426103274707
0.15400000000000008,5141.743780609922,5.2764084789548775,3834600.1356978873,281.3296294358768,2982.5078044418688,57.6989663576288,1.9177333725260657,0.0001552713370539143
0.1610000000000001,5143.485062947353,5.279939496712163,3834146.3693555146,281.32475949094066,2982.705170170981,57.67900760195473,1.9181116627040615,0.00016154340516955616
0.1680000000000001,5144.544133762839,5.283467611749527,3833692.719989558,281.3198903741818,2982.892450597957,57.65905862434955,1.9184897368985618,0.0001678111902796615
0.1750000000000001,5145.107782380671,5.286993550278205,3833239.135765431,281.3150215294214,2983.0723933091826,57.639117233341956,1.9188676404707419,0.00017407521992282953
0.1820000000000001,5145.311704909953,5.290517962542421,3832785.5790021145,281.310152552232,2983.2470017089327,57.619181836420594,1.9192454063648423,0.00018033587802808568
0.22200000000000011,5145.254463781761,5.294041384771128,3832332.022312624,281.30528314856616,2983.417735088899,57.59925127661435,1.919623058497209,0.00018659344410139697
0.2620000000000001,5139.032892970565,5.301764202659425,3829736.3116275384,281.27740726568896,2983.7024847036582,57.48539657347354,1.9217801453192898,0.00022231044746456104
0.3020000000000001,5135.599139946444,5.320220114109017,3827137.6480051186,281.2494856337963,2984.5501654634013,57.371575749659016,1.923936076973837,0.00025795646368764497
0.3420000000000001,5130.88094152546,5.341443292882429,3824537.005966273,281.22152866783995,2985.5129656114764,57.257829909792626,1.9260899924105104,0.00029352211023094015
0.38200000000000006,5126.849136836975,5.361064444824276,3821933.7549500074,281.19352953601066,2986.4056574179544,57.14413274800572,1.9282424252391581,0.00032901408214658915
0.42200000000000004,5122.473794080961,5.381567033482318,3819328.22500294,281.16549173225013,2987.334900341696,57.03049826197585,1.9303930756441996,0.0003644294687564913
0.462,5118.293219462508,5.401640568166422,3816720.2390352217,281.13741329614675,2988.245627260155,56.91691920507224,1.9325420830992093,0.00039977040791207275
0.502,5114.026428712065,5.421973339018987,3814109.885666542,281.10929512616354,2989.166968046096,56.803399450785136,1.93468935737167,0.0004350363931977005
0.542,5109.819409652612,5.442205234206673,3811497.1145284493,281.08113662425234,2990.083682700942,56.68993706824327,1.9368349282272141,0.00047022829008513235
0.5820000000000001,5105.596276123126,5.462524510731219,3808881.947594501,281.05293797134783,2991.0037373318096,56.576533148009176,1.9389787631341884,0.0005053462451696578
0.6220000000000001,5101.396126431282,5.482833398780576,3806264.369136831,281.0246989418736,2991.9229947470444,56.46318721256949,1.9411208620199727,0.0005403907716624729
0.6620000000000001,5097.198634684954,5.5031829108564905,3803644.382872449,280.9964195196849,2992.843613008253,56.3498995964295,1.9432612081482694,0.000575362187472949
0.7020000000000002,5093.014104955191,5.523546877147919,3801021.98236806,280.96809957891537,2993.764484670456,56.23667021516572,1.945399793512406,0.0006102609054234002
0.7420000000000002,5088.697520508691,5.543939056835023,3798397.1663260385,280.9397390489003,2994.4978423890093,56.12349920032577,1.947536605741223,0.000645087283884652
0.7820000000000003,5084.019265638089,5.564483674048388,3795769.930711263,280.9113378291842,2994.9136826954264,56.010386572849896,1.949671634829692,0.0006798417035563298
0.8220000000000003,5079.18650616437,5.58511342441503,3793140.210740323,280.8828951618466,2995.3286566838647,55.897329851815506,1.9518049223363831,0.0007145251252079052
0.8620000000000003,5074.443140759569,5.6055720636519375,3790507.9294623556,280.8544101556591,2995.7405205517407,55.7843260721174,1.953936519773749,0.0007491386150244836
0.9020000000000004,5069.670042555446,5.626155744012197,3787873.122113772,280.8258831324715,2996.1544393923764,55.67137690135039,1.9560663833869059,0.0007836821538101059
0.9420000000000004,5064.922071855458,5.646718651263834,3785235.7665277845,280.797313792763,2996.56781391973,55.55848164395083,1.9581945181199907,0.0008181562701084967
0.9820000000000004,5060.173986581237,5.667328628229394,3782595.867121192,280.76870212453565,2996.9818561830057,55.445640701478425,1.9603209064331675,0.0008525612336630337
1.0220000000000005,5055.437133822577,5.687954783289761,3779953.4160245736,280.7400479824529,2997.3960128038007,55.332853973340846,1.9624455411864266,0.0008868974276597283
1.0620000000000005,5050.706223157483,5.708611465939235,3777308.410877931,280.7113512806159,2997.810540120306,55.22012158796841,1.964568410610223,0.0009211651788746307
1.1020000000000005,5045.983501565714,5.729292387209427,3774660.846722085,280.6826119046751,2998.225324776218,55.10744357010418,1.9666895051397522,0.0009553648349026508
1.1420000000000006,5041.267817114071,5.750000634813093,3772010.719678844,280.65382975173566,2998.640421503667,54.994819991592536,1.9688088143173323,0.0009894967292727226
1.1820000000000006,5036.559546748741,5.770735052540203,3769358.0252876393,280.625004712307,2999.0558088876996,54.88225090331285,1.9709263281884877,0.0010235611972302717
1.2220000000000006,5031.85838464321,5.791496396736704,3766702.7592546768,280.5961366784324,2999.4714998476343,54.769736365786194,1.9730420366729193,0.001057558568710543
1.2620000000000007,5027.164330830495,5.812284564638789,3764044.9171171403,280.56722554003875,2999.887491858599,54.65727643547022,1.9751559298445391,0.0010914891715380652
1.3020000000000007,5022.477250998808,5.833099837245169,3761384.4943934027,280.5382711865657,3000.303789290798,54.5448711708746,1.9772679978050733,0.001125353330058144
1.3420000000000007,5013.914198987257,5.853942324228385,3758721.486516306,280.50927350623726,3000.4460535154294,54.432520629846024,1.9793782307386885,0.0011591513657993853
1.3820000000000008,5003.896035419305,5.874986429928176,3756055.888862929,280.4802323863825,3000.4934035237693,54.32022487077161,1.9814866188863558,0.0011928835972354458
1.4220000000000008,4994.020684611486,5.895906310646394,3753387.617463877,280.45114684889563,3000.5401616884083,54.207980750814606,1.9835932179787519,0.0012265510695454221
1.4620000000000009,4984.218004364346,5.916879129517087,3750716.678769893,280.4220168999606,3000.586977516818,54.09578879399229,1.985698008784382,0.0012601539861501652
1.502000000000001,4974.5017775896085,5.93787374735058,3748043.0649868874,280.39284239023755,3000.6327889406903,53.98364895096337,1.9878009838600412,0.0012936926786109837
1.542000000000001,4964.865472732586,5.958899942705032,3745366.772059738,280.3636232108464,3000.67707887335,53.87156132617903,1.9899021326826989,0.0013271674406932078
1.582000000000001,4955.309698599611,5.979954221723557,3742687.7943074913,280.3343592348556,3000.7213563249147,53.75952596139087,1.9920014460719926,0.0013605785777100199
1.622000000000001,4945.833511993975,6.001037293736912,3740006.1264908426,280.3050503398353,3000.765628925519,53.647542918990254,1.9940989144871604,0.0013939263875967685
1.662000000000001,4936.435584659508,6.022149698142255,3737321.7634301363,280.275696403691,3000.8098956511208,53.53561226657017,1.9961945283417741,0.0014272111644662204
1.702000000000001,4927.114953402181,6.043291399402291,3734634.6998026688,280.24629730244504,3000.8541557840385,53.423734068786295,1.9982882781688776,0.0014604332004854652
1.742000000000001,4917.870522375921,6.064462640883838,3731944.9302518847,280.21685291142717,3000.8984087606023,53.31190839173934,2.0003801545307818,0.0014935927849159198
1.7820000000000011,4908.701271427823,6.085663552966185,3729252.449342524,280.1873631047802,3000.9426539326846,53.20013530117965,2.002470148054813,0.0015266902045509177
1.8220000000000012,4899.60617454415,6.106894309728194,3726557.2515781187,280.1578277556485,3000.9868906889274,53.08841486320887,2.0045582494181975,0.0015597257435884715
1.8620000000000012,4890.58423049245,6.1281550682793,3723859.331394289,280.1282467361008,3001.031118404174,52.97674714401382,2.0066444493526556,0.0015926996837219486
1.9020000000000012,4885.370036284191,6.149445991999947,3721158.683161271,280.0986199171547,3000.962030591581,52.8651322099705,2.008728738641495,0.001625612304146884
1.9420000000000013,4885.260598973534,6.170831888369869,3718455.3011829513,280.06894716876246,3000.7377100710382,52.75357012760745,2.0108111081195577,0.0016584638815989362
1.9820000000000013,4885.1919491985645,6.1922596150366696,3715749.1512909443,280.03922804776784,3000.5121142496105,52.642059839219236,2.012891571489242,0.0016912549414243706
2.022000000000001,4885.226668925855,6.213646746686852,3713040.202006564,280.0094621395602,3000.287161531179,52.530600402671226,2.0149701401138307,0.00172398597938981
2.062000000000001,4885.355957678998,6.235097398584752,3710328.4600156914,279.97964944826253,3000.061569596084,52.41919239077718,2.0170467946554136,0.0017566571503644618
2.102000000000001,4885.5841974663945,6.256567710253484,3707613.9144362523,279.9497897846463,2999.8358406016227,52.30783568387926,2.01912152987833,0.0017892687615210323
2.1420000000000012,4885.913037200595,6.278073655221665,3704896.5607256056,279.91988302879923,2999.6097947085163,52.196530415715,2.0211943354579467,0.001821821061272959
2.1820000000000013,4886.344838439628,6.299610013258388,3702176.392078267,279.8899290355602,2999.383489200675,52.08527663354515,2.0232652028720963,0.0018543143150497546
2.2220000000000013,4886.881885315854,6.3211787382138,3699453.402352806,279.85992766670694,2999.156901787872,51.9740744136375,2.0253341230597273,0.0018867487796207236
2.2620000000000013,4887.526564481847,6.342779405170071,3696727.585099423,279.8298787802511,2998.930036431346,51.86292382296163,2.02740108719617,0.0019191247116345336
2.3020000000000014,4888.281333569391,6.3644123679547535,3693998.93387843,279.7997822339413,2998.702888541567,51.75182493172498,2.0294660864386422,0.0019514423648625343
2.3420000000000014,4889.148727618012,6.386077727880016,3691267.4421568573,279.7696378841203,2998.4754562976636,51.64077780931602,2.031529112007654,0.0019837019911231636
2.3820000000000014,4890.131363140597,6.407775667330648,3688533.1033415347,279.73944558608565,2998.2477369996996,51.52978252560908,2.033590155159959,0.002015903840018035
2.4220000000000015,4891.231939970832,6.429506342825893,3685795.9107683855,279.70920519396793,2998.019728233496,51.41883915055221,2.035649207196209,0.00204804815904755
2.4620000000000015,4890.202032340703,6.451269919011321,3683055.8577056495,279.67891656076233,2997.7120780182813,51.307947754300066,2.0377062594576447,0.0020801351936057242
2.5020000000000016,4885.891931387146,6.4731024808862925,3680312.9373527197,279.6485795383119,2997.286928054057,51.19710840717533,2.039761303326212,0.0021121651870124997
2.5420000000000016,4881.554747425076,6.494979205049704,3677567.127571038,279.6181938082857,2996.8605452495945,51.08632058747998,2.041814342148136,0.0021441385102066723
2.5820000000000016,4877.2363572027725,6.516844928119559,3674818.4056641776,279.5877590454029,2996.434609402994,50.975583758254174,2.043865379592125,0.002176055534766323
2.6220000000000017,4872.919514213381,6.538763328776987,3672066.7719807923,279.55727517896815,2996.0059720111026,50.86489828014544,2.0459144012875163,0.0022079164335678018
2.6620000000000017,4868.608723376027,6.560710462956125,3669312.2168322927,279.52674202677,2995.576048960946,50.75426412741719,2.0479614006849487,0.0022397214621599337
2.7020000000000017,4864.302867193831,6.582692933367135,3666554.73334713,279.496159437374,2995.1455900406318,50.643681386408396,2.0500063690197248,0.0022714708496528713
2.7420000000000018,4860.00244429671,6.604709127497486,3663794.3139840267,279.46552725150417,2994.714629819417,50.53315012048482,2.05204929802915,0.002303164828278332
2.782000000000002,4855.7072284445685,6.626759996607191,3661030.9514393485,279.43484531209776,2994.283148698354,50.422670405097506,2.0540901792471282,0.002334803625761796
2.822000000000002,4851.417219753857,6.648845448522561,3658264.63823402,279.4041134597203,2993.8511479000526,50.312242311851556,2.0561290043237714,0.002366387468816863
2.862000000000002,4847.132355784794,6.67096572089297,3655495.366848618,279.37333153406007,2993.418622220661,50.20186591372301,2.058165764920047,0.0023979165820299363
2.902000000000002,4842.852591236498,6.6931209582200175,3652723.1296842494,279.34249937348955,2992.9855682579696,50.091541283562634,2.0602004527372575,0.002429391188206113
2.942000000000002,4838.577877275636,6.7153113296501425,3649947.9190727277,279.3116168151741,2992.5519821467788,49.981268494497954,2.062233059508422,0.0024608115083020188
2.982000000000002,4834.308166635843,6.737536998208464,3647169.727273703,279.2806836950358,2992.117860145108,49.87104761983463,2.064263576999719,0.002492177761467104
3.022000000000002,4827.189032412451,6.759798128458953,3644388.5464750687,279.2496998477535,2991.5837463437815,49.76087873308324,2.066291997009414,0.00252349016505744
3.062000000000002,4818.78006640671,6.782126960586162,3641604.3687925776,279.21866510675414,2991.0030020959634,49.65076190795605,2.0683183113673995,0.0025547489346557633
3.102000000000002,4810.403658935601,6.804469455688812,3638817.1730597327,279.1875791568325,2990.4220180685334,49.54069671663423,2.0703425219526266,0.002585954391948157
3.142000000000002,4802.059804651105,6.8268451526144895,3636026.9507155833,279.1564418227043,2989.840420419921,49.43068321535408,2.0723646209947497,0.002617106752445886
3.182000000000002,4793.745236009848,6.849259356542241,3633233.6944423467,279.12525294249593,2989.2580512701925,49.320721510520286,2.0743845997560206,0.0026482062192136426
3.222000000000002,4785.460928243928,6.871709190689913,3630437.395703929,279.0940123402735,2988.674986600163,49.210811665272956,2.0764024503959484,0.002679253002965371
3.2620000000000022,4777.206281980638,6.89419582391037,3627638.0462975064,279.0627198433513,2988.0911959855357,49.10095375840507,2.0784181647946625,0.0027102473094211222
3.3020000000000023,4768.981140830186,6.916719156610907,3624835.6378343063,279.0313752764912,2987.506681452959,48.991147864686994,2.080431734945013,0.002741189343548836
3.3420000000000023,4760.7852460610375,6.939279414219629,3622030.161877296,278.9999784634353,2986.9214368740927,48.88139406009379,2.0824431528478518,0.002772079308460839
3.3820000000000023,4752.618362018231,6.961876750736579,3619221.6099094944,278.96852922654745,2986.3354578942763,48.77169242062156,2.0844524105351514,0.0028029174056846354
3.4220000000000024,4744.480251305299,6.984511333686987,3616409.9733398044,278.93702738687335,2985.7487398401545,48.662043022521004,2.0864595000648882,0.0028337038351299534
3.4620000000000024,4736.370678778626,7.007183328719719,3613595.2435017317,278.90547276412155,2985.161278090647,48.55244594226342,2.0884644135212604,0.002864438795112786
3.5020000000000024,4728.289411094287,7.029892901746866,3610777.411653143,278.8738651766558,2984.5730680275,48.44290125654691,2.090467143014114,0.0028951224823706412
3.5420000000000025,4720.9449008253905,7.0526402188309785,3607956.4689759538,278.8422044414864,2983.954980875925,48.33340904229917,2.092467680678439,0.0029257550920782677
3.5820000000000025,4715.511145414742,7.075430118700741,3605132.4065757818,278.8104903742617,2983.2576525697514,48.2239693766798,2.094466018673885,0.002956336817863291
3.6220000000000026,4710.070381421393,7.098265401815894,3602305.2136104843,278.778722768228,2982.559096789098,48.11458226741462,2.0964621505636365,0.0029868678665570013
3.6620000000000026,4704.634771759102,7.121126660470405,3599474.876748417,278.74690138807125,2981.8600418212172,48.00524763321385,2.0984560716968192,0.003017348462256143
3.7020000000000026,4699.199720554499,7.144030875205256,3596641.3886397732,278.7150260651584,2981.1599160373744,47.89596561891935,2.1004477729708886,0.003047778779729042
3.7420000000000027,4693.766334465322,7.166972638312557,3593804.7395856692,278.68309660392987,2980.456156186715,47.78673628502949,2.1024372469808634,0.0030781590101536744
3.7820000000000027,4688.3297441794575,7.189959129620546,3590964.920365352,278.65111281367115,2979.7512564823273,47.67755971298413,2.104424485934393,0.0031084893388622584
3.8220000000000027,4682.8962551099285,7.212978112579831,3588121.919306527,278.61907447550084,2979.045654822631,47.56843589678695,2.1064094837912175,0.00313876996816765
3.8620000000000028,4677.463593156941,7.2360384653228405,3585275.7278380687,278.58698140491657,2978.3390759859026,47.45936494852562,2.1083922322043396,0.003169001074110417
