time,thrust,OF,ox_tank.pressure,ox_tank.temperature,combustion_chamber.temperature,propellant_mass,propellant_CG,combustion_chamber.fuel_grain.geometry.length_regressed
0.007,243.31086088981277,4.692670005201991,4526169.82987165,288.29934600505266,2787.56698014339,55.73480153437234,1.8630928817956227,1.4444144238265226e-05
0.014,1064.4557679772959,4.410333859259225,4525136.466423179,288.28954754270234,2882.037104486191,55.69827816296636,1.8638054992609314,2.8808095513347237e-05
0.021,2255.327107964298,4.359268468167083,4524171.105565983,288.2803923636841,2909.338253321725,55.66409700325656,1.8644689626366204,4.239641437719027e-05
0.028,3198.3693240289394,4.325610177429873,4523268.869859257,288.2718345119713,2921.083718576186,55.63209249096437,1.865086945275481,5.5256374816938894e-05
0.035,3930.258910573138,4.30344221194833,4522421.965556522,288.26380031638195,2926.02076575017,55.60199874292146,1.865665168964933,6.746998712304906e-05
0.042,4497.957846953527,4.291166535429621,4521622.086105428,288.2562111823993,2929.6397822481904,55.57353160002724,1.866209676080038,7.912758191561971e-05
0.049,4953.424994401913,4.2866118074383,4520861.101991165,288.2489901417707,2933.045604980175,55.54641228501272,1.866726340109195,9.031985847243272e-05
0.056,5282.818058585465,4.2875884996703535,4520131.544749039,288.24206645280697,2936.5178923353346,55.52038415190997,1.867220528261977,0.00010113187642934635
0.063,5530.4297365521,4.292084274265346,4519426.868483429,288.2353780908499,2940.016000187691,55.49522186104,1.867696924569406,0.00011163944191881203
0.07,5687.2770248356765,4.298505630206947,4518741.55480982,288.22887275275804,2943.4010721592076,55.47073517306706,1.868159464121836,0.00012190731644990221
0.07700000000000001,5825.694204317015,4.305732185441134,4518071.096984977,288.2225077139272,2946.5613022577363,55.446768551035376,1.8686113516365426,0.000131988941519081
0.08400000000000002,5925.742763974246,4.313103504930878,4517411.908838971,288.21624897032,2949.4376275675995,55.42319812617331,1.8690551314851291,0.0001419271821919091
0.09100000000000003,5999.4300823246085,4.32026925822509,4516761.190823874,288.21006997208656,2952.0330318941824,55.39992714327515,1.869492786322223,0.0001517557022285973
0.09800000000000003,6053.487723585307,4.327056384417058,4516116.789455715,288.2039502932123,2954.35346434307,55.37688114677227,1.8699258389958897,0.00016150051146141488
0.10500000000000004,6094.019695048388,4.333437292496348,4515477.070279185,288.1978744284989,2956.0701824591897,55.35400361295806,1.870355443918861,0.00017118141430218082
0.11200000000000004,6123.919880383813,4.339471597606083,4514840.80349076,288.19183070986855,2957.5389063613884,55.33125200723849,1.870782468815889,0.0001808133461878163
0.11900000000000005,6145.779408709804,4.345188446431198,4514207.065663135,288.1858103748567,2958.873522520086,55.30859439123876,1.8712075646553228,0.0001904075395479106
0.12600000000000006,6161.718219674377,4.350641722297744,4513575.169382799,288.1798068996715,2960.1060691893726,55.286006990829584,1.8716312156472785,0.00019997236534193582
0.13300000000000006,6173.303421129622,4.355887333651297,4512944.60551985,288.17381545183844,2961.261261592346,55.263472199577485,1.8720537801613715,0.00020951402853221075
0.14000000000000007,6181.690400303869,4.360972861923702,4512314.998034663,288.1678324616235,2962.357964626396,55.24097701524299,1.8724755227031538,0.00021903711501656804
0.14700000000000008,6187.729616028471,4.365936886394198,4511686.069751798,288.1618552974131,2963.410823356688,55.21851185546863,1.872896638101208,0.0002285450070754275
0.15400000000000008,6192.046348549586,4.370809721806908,4511057.616670222,288.155882022024,2964.4310259789063,55.196069668786144,1.8733172696440072,0.00023804019581064885
0.1610000000000001,6195.099933125415,4.375614709506338,4510429.48880805,288.14991121097574,2965.427025718281,55.1736452717702,1.8737375225925046,0.00024752451439154975
0.1680000000000001,6197.227595011925,4.380369572594842,4509801.5759860035,288.1439418176015,2966.405159056529,55.15123485713924,1.8741574742019265,0.00025699931127919355
0.1750000000000001,6198.67680341591,4.385087637657897,4509173.79731196,288.1379730732634,2967.370148846644,55.1288356299675,1.8745771811301504,0.00026646557839031927
0.1820000000000001,6199.629105282161,4.3897788564932405,4508546.093422043,288.13200441371765,2968.325500836293,55.10644553931216,1.8749966849010646,0.0002759240456631279
0.22200000000000011,6200.217657843457,4.394450624273273,4507918.420765923,288.12603542487363,2969.273809639243,55.08406308058764,1.8754160159265951,0.00028537525069424947
0.2620000000000001,6193.532821238097,4.402896428696602,4504326.2712005945,288.09186304676945,2970.9214178346333,54.95621937285919,1.8778104717944206,0.0003392972589568684
0.3020000000000001,6190.0856242143345,4.42933214511688,4500730.4960379,288.05763560379347,2976.226433178966,54.828465354713884,1.8802025005056255,0.0003930391858904507
0.3420000000000001,6188.29790333387,4.454859652109973,4497131.237324851,288.02335436029966,2981.3603897613516,54.70080574430364,1.8825919733857428,0.0004466009268650417
0.38200000000000006,6185.818903840294,4.481943542305478,4493529.384465525,287.9890277082956,2986.7998379404557,54.57327074538555,1.8849782462510958,0.0004999735354422763
0.42200000000000004,6183.952016288167,4.508120123679111,4489924.427872606,287.9546507151606,2992.059546487436,54.44584271012357,1.8873616454346862,0.0005531647015496386
0.462,6181.807724838368,4.534988466058385,4486316.726402435,287.92022672531766,2997.4538205141343,54.318533656786386,1.8897418967910262,0.0006061717948541083
0.502,6179.977334633993,4.561467165699847,4482706.050762862,287.8857534741483,3002.7701875626803,54.191335560833345,1.8921191325142637,0.0006589991009489097
0.542,6178.067562155192,4.588284607206126,4479092.564893406,287.85123244932436,3008.151697177118,54.064253792798226,1.8944932142151152,0.0007116462580512636
0.5820000000000001,6176.340441051422,4.614951565881796,4475476.169036685,287.81666262059287,3013.502330353202,53.93728477096756,1.8968641850594758,0.0007641159655291556
0.6220000000000001,6173.190524709781,4.641797693138028,4471856.939482612,287.782044639554,3018.16877572786,53.810430896201375,1.8992319677515792,0.0008164088464314771
0.6620000000000001,6167.717968537916,4.668951436082046,4468234.834443201,287.7473780289011,3021.9139186835487,53.68369057846475,1.9015965660889902,0.0008685268701673166
0.7020000000000002,6161.8310651444135,4.696206915737872,4464609.619079979,287.7126604607664,3025.6670864997436,53.55705574281787,1.9039581150001215,0.0009204741826015293
0.7420000000000002,6156.1917780755675,4.723119661814006,4460981.066614596,287.6778896787966,3029.372937858641,53.43051864617916,1.9063167427716234,0.0009722547693820134
0.7820000000000003,6150.452321036203,4.750306326058068,4457349.301067057,287.64306678568374,3033.114118258002,53.304083384718716,1.9086723393101204,0.0010238685695964044
0.8220000000000003,6144.823821763954,4.777411047137084,4453714.25194645,287.60819101999726,3036.843097032969,53.177747515289305,1.911024926739477,0.0010753177219355234
0.8620000000000003,6139.178970087348,4.80465084176332,4450075.96654625,287.5732627494771,3040.5888584306267,53.051512561730334,1.9133744476741128,0.001126603004579496
0.9020000000000004,6133.5934298320235,4.831895425103142,4446434.4209932955,287.5382816588643,3044.334018515289,52.9253776680382,1.9157208930299312,0.0011777259811145647
0.9420000000000004,6128.021294365873,4.8592241361865725,4442789.633824694,287.50324783983785,3048.0891646113027,52.79934340705067,1.9180642253607967,0.0012286877165522063
0.9820000000000004,6122.489358052439,4.88658998756245,4439141.597821333,287.46816113644485,3051.8480362291198,52.67340949802538,1.9204044247578165,0.0012794895454330522
1.0220000000000005,6116.981035865329,4.914021981004805,4435490.320854857,287.4330215375644,3055.614501751546,52.54757617192651,1.9227414613985363,0.0013301326140315818
1.0620000000000005,6109.792126151938,4.941503486730633,4431835.801462462,287.3978289420712,3058.9324953049922,52.421843356148926,1.925075311915662,0.0013806181535867055
1.1020000000000005,6098.840781382706,4.969303596565195,4428178.04343521,287.36258329917075,3061.368939061207,52.2962111604871,1.9274059496343008,0.0014309473183406597
1.1420000000000006,6087.401681653465,4.997338558951943,4424516.856399712,287.32728268519617,3063.818963573951,52.170673275092064,1.9297334767246324,0.0014811233694263983
1.1820000000000006,6076.376529778519,5.0249331818029725,4420851.958777343,287.2919242914174,3066.2309624687377,52.045220424510866,1.9320580546479937,0.0015311505107254346
1.2220000000000006,6065.248100526153,5.052848054454098,4417183.492580081,287.2565093925898,3068.668916404348,51.91985737578527,1.9343795639783978,0.001581028281060792
1.2620000000000007,6054.28568887203,5.080687992211758,4413511.382264101,287.22103716435504,3071.0996452069517,51.79458170683179,1.9366980294589446,0.001630758579678177
1.3020000000000007,6043.347296027035,5.108662454476561,4409835.66653377,287.1855078848802,3073.540729937789,51.66939477574779,1.9390134005479958,0.0016803420457935912
1.3420000000000007,6032.505742319641,5.136661989303493,4406156.323878422,287.1499212503724,3075.9829890839214,51.544295962277666,1.9413256665325886,0.0017297799551656368
1.3820000000000008,6021.722019334464,5.164744784018131,4402473.363980353,287.1142772581841,3078.431302905603,51.4192856799393,1.9436347963502565,0.001779073230756881
1.4220000000000008,6011.015187291233,5.192881167844707,4398786.779970392,287.0785757452485,3080.883185018665,51.29436380513701,1.9459407699406213,0.0018282229578827718
1.4620000000000009,6000.374273794292,5.2210873784202105,4395096.573297084,287.0428166286394,3083.3389387150933,51.16953049396794,1.9482435619467373,0.0018772301173427877
1.502000000000001,5994.669971463419,5.249356053836665,4391402.740816443,287.0069997806009,3085.2450947079647,51.044785758764746,1.9505431501494641,0.0019260957238216114
1.542000000000001,5992.978713839668,5.278037634474277,4387705.281255417,286.9711250911371,3086.6782588558867,50.92012967968437,1.9528395112473103,0.0019748207572258336
1.582000000000001,5991.177285522352,5.306653057506343,4384003.948896014,286.9351900759101,3088.104370196222,50.795554395536136,1.955132779827995,0.0020234087451864837
1.622000000000001,5989.53568967239,5.335153428919182,4380298.640592393,286.8991936296991,3089.524540363748,50.67105673110474,1.957422997289987,0.002071861672951727
1.662000000000001,5987.980546404559,5.36381203725936,4376589.401711154,286.8631360885339,3090.9516035350866,50.54663835173377,1.959710109142936,0.0021201799511379256
1.702000000000001,5986.545669934733,5.39250145173225,4372876.206267983,286.827017094945,3092.379542668286,50.422298610336334,1.9619941070229476,0.0021683647239789643
1.742000000000001,5985.218969206606,5.4212796266642025,4369159.059973368,286.79083659905774,3093.8110930837593,50.298037894710816,1.9642749622777278,0.002216416791689211
1.7820000000000011,5984.008419017497,5.450121488240667,4365437.954172159,286.754594410819,3095.245069878441,50.17385613366716,1.96655265557564,0.002264337090627771
1.8220000000000012,5982.913402970593,5.479038932248193,4361712.886301309,286.7182903989901,3096.68203344174,50.04975345937983,1.9688271637815113,0.0023121264811482105
1.8620000000000012,5981.937106978127,5.508027471770726,4357983.850849295,286.6819244031417,3098.121770753218,49.925729915088816,1.9710984657367518,0.002359785841287916
1.9020000000000012,5980.933841505787,5.537089848552201,4354250.843336132,286.64549627240984,3099.5451629572362,49.801785583504255,1.9733665397156657,0.0024073160259650366
1.9420000000000013,5974.228846772519,5.566237939115806,4350513.858572299,286.60900584851987,3100.2188216467102,49.677920530661375,1.975631364530212,0.0024547178850396825
1.9820000000000013,5966.963296172328,5.595928385900352,4346772.883131087,286.57245289218514,3100.8980165800604,49.554134565244,1.977892924260568,0.0025019923393534774
2.022000000000001,5959.955133330111,5.625106001866102,4343027.5911440775,286.5358341075884,3101.566418757593,49.43041752664945,1.9801513991845698,0.0025491434372463925
2.062000000000001,5952.8767873565985,5.654607462113868,4339278.115077054,286.4991506758937,3102.241436293601,49.306773939357036,1.9824066805688358,0.0025961705770830767
2.102000000000001,5945.850069680218,5.684094124283563,4335524.395314778,286.4624019001483,3102.915883098992,49.18320219128617,1.9846587806189326,0.002643075083208182
2.1420000000000012,5938.829989007422,5.713693808720565,4331766.4442763375,286.42558778738464,3103.592479278693,49.0597029764184,1.9869076663825826,0.002689857544830309
2.1820000000000013,5931.832544719882,5.743360218901562,4328004.247628194,286.38870808221486,3104.2702355602387,48.93627614205355,1.9891533217152804,0.002736518807928811
2.2220000000000013,5924.851698585011,5.773111017653036,4324237.800530745,286.35176262163617,3104.949023158201,48.81292184367443,1.9913957245971676,0.0027830596128734873
2.2620000000000013,5917.889010049528,5.802941034027418,4320467.094463884,286.31475120597554,3105.626935134571,48.68964012584362,1.9936348553520695,0.00282948072586111
2.3020000000000014,5910.942163383573,5.832853592322255,4316692.121686121,286.27767364258006,3106.306312100312,48.5664310638459,1.9958706938666422,0.0028757828947563804
2.3420000000000014,5897.170554265513,5.862844952920654,4312912.873251135,286.24052972633825,3106.526097154523,48.44329470091065,1.9981032208146428,0.0029219668687673365
2.3820000000000014,5881.645759945451,5.893184403915014,4309129.3420108305,286.2033192691822,3106.639314385042,48.32023114293339,2.0003324158035887,0.0029680333692121666
2.4220000000000015,5866.422720185187,5.923349248063076,4305341.349115001,286.1660403921062,3106.751598474673,48.19723510886825,2.0025583635166386,0.0030139847704252114
2.4620000000000015,5851.357650097548,5.953647070045599,4301548.915660812,286.1286931807268,3106.864341109272,48.074307628484604,2.0047810255834526,0.003059821483038741
2.5020000000000016,5836.476117094334,5.9840193848953005,4297752.025641349,286.09127735501244,3106.977305869201,47.95144856971191,2.0070003864341746,0.003105544268983985
2.5420000000000016,5821.768224423943,6.014480380858552,4293950.671095935,286.05379271344043,3107.0905419009905,47.828658059224296,2.009216425598601,0.003151153802554333
2.5820000000000016,5807.232732716022,6.045027176899367,4290144.841808863,286.01623903157565,3107.20403700638,47.705936158904336,2.011429124004185,0.003196650770302655
2.6220000000000017,5792.866232786458,6.0756613060543865,4286334.527930367,285.9786160878808,3107.3177941845565,47.58328294800343,2.0136384623743,0.003242035845875783
2.6620000000000017,5778.665970852788,6.106383117393983,4282519.719277558,285.94092365681513,3107.431812412587,47.460698501252274,2.0158444216505274,0.003287309696854091
2.7020000000000017,5764.629093167023,6.137193284710374,4278700.405524191,285.90316151069646,3107.5460917786486,47.33818289478154,2.0180469828745693,0.003332472983051163
2.7420000000000018,5756.342128914646,6.168092397209662,4274876.5761498315,285.8653294191895,3107.2891718795136,47.21573620453054,2.020246127216066,0.0033775263571128042
2.782000000000002,5748.513247735146,6.1992746175510165,4271048.220453911,285.82742714943447,3106.9840979000674,47.093358506676864,2.0224418359612466,0.003422470464495894
2.822000000000002,5740.75074893858,6.230342283481012,4267215.207617982,285.78945327740786,3106.6803729237545,46.971046173754594,2.0246341619078567,0.00346730706366751
2.862000000000002,5732.9894722682175,6.2615540262776275,4263377.557615821,285.75140787054033,3106.375462153855,46.848800258052165,2.026823067549737,0.00351203648511646
2.902000000000002,5725.243315961492,6.292846644827234,4259535.251731001,285.7132906123615,3106.0699536793077,46.726620620358716,2.029008538489733,0.003556659413813807
2.942000000000002,5717.509393760527,6.324234448757922,4255688.279513072,285.67510126749943,3105.763717237637,46.60450738275798,2.0311905553993914,0.0036011764490327114
2.982000000000002,5711.73408024397,6.355715517779238,4251836.628705275,285.6368395818628,3105.4548016902236,46.48246061747823,2.033369100015273,0.003645588198580061
3.022000000000002,5707.811890692258,6.387291871765884,4247980.287126624,285.598505301291,3105.1440355379577,46.36048040494715,2.0355441540179786,0.0036898952613594158
3.062000000000002,5704.841326447052,6.418962736578703,4244119.2417797465,285.5600981626746,3104.8325324475345,46.23856680645625,2.0377156995537766,0.003734098235662269
3.102000000000002,5704.556711004908,6.450728891637349,4240253.479834593,285.52161790371804,3104.4404211876176,46.116719894349046,2.0398837186524315,0.0037781977101975553
3.142000000000002,5709.137721435301,6.4826258452816345,4236382.988475163,285.4830642614135,3103.820022726254,45.99493974726426,2.042048193316631,0.0038221942656307666
3.182000000000002,5713.141297666751,6.514677800974126,4232507.733970558,285.4444367633509,3103.1958258415207,45.873225813659786,2.0442091176668296,0.00386608866395651
3.222000000000002,5716.500203034162,6.5467275467923605,4228627.651933866,285.4057346298005,3102.572201596386,45.75157662155811,2.0463665034022864,0.003909881933024527
3.2620000000000022,5719.140237069935,6.578909231438105,4224742.747682092,285.3669577747316,3101.9464290567594,45.629992827866296,2.048520321636268,0.003953574460692762
3.3020000000000023,5720.972901771343,6.6111831216378425,4220853.0028672675,285.32810587527865,3101.3192591352413,45.508474375487445,2.050670557194123,0.003997166841467973
3.3420000000000023,5721.920433261924,6.643558154494484,4216958.40410746,285.28917865719444,3100.6905299687533,45.38702136412231,2.0528171919903944,0.004040659617585784
3.3820000000000023,5721.909240314819,6.676033922094775,4213058.937073457,285.25017583584975,3100.06024519025,45.265633870664004,2.054960208451512,0.004084053332439641
3.4220000000000024,5720.872753243825,6.708611101337915,4209154.587274393,285.21109712406127,3099.4283915921424,45.14431197305263,2.057099589058791,0.004127348523581991
3.4620000000000024,5718.752195461764,6.741290419770794,4205245.34005023,285.1719422320055,3098.7949542829424,45.02305575005723,2.0592353163503208,0.004170545722868852
3.5020000000000024,5706.8026944732355,6.7740725429159,4201331.180538212,285.13271086687064,3097.953985014609,44.90186528027862,2.0613673729375717,0.004213645456830634
3.5420000000000025,5693.860165906645,6.807021526774271,4197412.09368417,285.09340273295766,3097.086492154171,44.78074064250864,2.063495741496293,0.0042566482466415345
3.5820000000000025,5681.00674580977,6.840009637552606,4193488.027625184,285.0540171640138,3096.2185006504715,44.659680821509426,2.065620425398736,0.004299554927811866
3.6220000000000026,5668.214271178558,6.873116509049531,4189558.975245855,285.01455394136633,3095.347967913249,44.53868615052772,2.067741402580549,0.004342365935257134
3.6620000000000026,5655.485960892231,6.906327851938339,4185624.919751485,284.975012748252,3094.4752380432597,44.417756678779476,2.0698586564043784,0.004385081782024599
3.7020000000000026,5642.8213382555205,6.93964557115437,4181685.845160571,284.93539327504203,3093.5993454333493,44.29689248585733,2.071972169717644,0.004427702967277342
3.7420000000000027,5630.219212932714,6.973071081941988,4177741.7354160645,284.89569521031575,3092.718878199146,44.17609365511555,2.074081925353337,0.004470229984160144
3.7820000000000027,5617.678343010669,7.006605153056389,4173792.57395812,284.8559182365474,3091.836106921036,44.05536026100698,2.0761879063656026,0.004512663323542923
3.8220000000000027,5605.199407450275,7.0402470358362175,4169838.3437542105,284.81606203038524,3090.951062761002,43.93469237007771,2.078290096007941,0.004555003473776883
3.8620000000000028,5596.23613619555,7.0739986471370395,4165879.0281823464,284.7761262715405,3089.924238155783,43.81409006713154,2.0803884772411005,0.004597250913188768
