time,thrust,OF,ox_tank.pressure,ox_tank.temperature,combustion_chamber.temperature,propellant_mass,propellant_CG,combustion_chamber.fuel_grain.geometry.length_regressed
0.007,239.2192466149438,5.69330195578206,4329080.326216978,286.39925901759227,2836.5552473549906,55.9313151733183,1.8403931895466397,1.1731995820170797e-05
0.014,950.9892906729175,5.3554230048060685,4328151.180136771,286.39014886934945,2979.6344618450476,55.897115399875034,1.8410950364810443,2.3411615598037366e-05
0.021,2076.548130465691,5.24188769172656,4327281.3544477625,286.38161902004725,3023.868215420262,55.8650132701443,1.8417492558600939,3.458164134469495e-05
0.028,2986.971150688422,5.150708638724703,4326467.388017066,286.37363578374215,3042.9992437035057,55.83488929768304,1.8423587843247529,4.526188038789239e-05
0.035,3684.9105185559374,5.076882239914774,4325702.89780896,286.3661367755963,3052.811187494172,55.806520678028754,1.842928846292958,5.5499055327304666e-05
0.042,4260.355508985386,5.019293879072758,4324980.850377864,286.35905318288445,3058.307544740904,55.779660856403105,1.8434651371955304,6.534836666397749e-05
0.049,4689.349198859865,4.9762161877566236,4324294.245739125,286.3523164764644,3061.626666586212,55.754063591741165,1.8439732822952872,7.486757547968649e-05
0.056,5016.939238298078,4.9449647680377105,4323636.537978386,286.34586254316383,3063.7873713224203,55.72949792316315,1.844458510180482,8.411288074060326e-05
0.063,5260.61723200037,4.923566261405064,4323001.943385033,286.3396347161601,3064.934180456477,55.70575926902277,1.844925418430903,9.31355152464118e-05
0.07,5445.106114092244,4.909536059301642,4322385.479091558,286.33358416108456,3065.478984128233,55.68267100334398,1.8453779518286513,0.00010198076411994918
0.07700000000000001,5583.388534919534,4.900887775181179,4321783.014716619,286.32767038906803,3066.057731442038,55.660086472293514,1.8458193695375766,0.00011068692366541296
0.08400000000000002,5686.249093770214,4.896005347875108,4321191.220169473,286.3218607499326,3066.661465048486,55.63788728404368,1.8462522922652393,0.00011928535220978939
0.09100000000000003,5761.831324391139,4.8940335429059,4320607.477589572,286.31612957239054,3067.3194697789563,55.615980278038506,1.8466787758501075,0.00012780099314196351
0.09800000000000003,5816.873815284765,4.893861621729385,4320029.731298086,286.3104566946639,3067.9628347181742,55.59429225012321,1.8471004317204593,0.00013625361085610203
0.10500000000000004,5857.292216244343,4.8947947156550375,4319456.421235764,286.3048268138614,3068.5826100976074,55.57276761919637,1.8475184811049976,0.00014465830327364088
0.11200000000000004,5886.887751184177,4.8966250695241955,4318886.39124523,286.29922858776143,3069.1963111199348,55.551365180904426,1.8479338280959743,0.00015302631287447877
0.11900000000000005,5908.509889595726,4.899089619845361,4318318.773569001,286.2936535023581,3069.7997811540213,55.530054004178496,1.8483471506134708,0.0001613661072445836
0.12600000000000006,5924.258897749953,4.9020064243703665,4317752.920498641,286.28809520187036,3070.392040662379,55.50881100016969,1.848758954251116,0.00016968402272636522
0.13300000000000006,5935.627120130928,4.905247987396279,4317188.350462247,286.28254896017626,3070.978263678171,55.4876190025914,1.8491696146427627,0.00017798477904645388
0.14000000000000007,5943.768047874832,4.908723295502671,4316624.706434391,286.27701127299315,3071.5592510653228,55.466465285755405,1.8495794100857852,0.00018627188004186269
0.14700000000000008,5949.533052593734,4.912368156425186,4316061.724380124,286.27147954840683,3072.136000376316,55.445340439618825,1.8499885462594385,0.00019454791968783627
0.15400000000000008,5953.549772683624,4.9161365561491905,4315499.209346293,286.2659518723668,3072.709428384755,55.4242375172361,1.8503971749312453,0.00020281481502246092
0.1610000000000001,5956.280518066651,4.919995318481701,4314937.017555201,286.2604268330335,3073.280312497265,55.4031513961599,1.850805407954319,0.0002110739811414017
0.1680000000000001,5958.0656118518855,4.923920408173558,4314375.043061106,286.25490338986936,3073.8492820739953,55.382078302553566,1.851213327690007,0.00021932646187641759
0.1750000000000001,5959.155468375199,4.92789434596508,4313813.207843563,286.2493807764383,3074.4168320791287,55.36101545789269,1.8516209947409235,0.00022757302694879973
0.1820000000000001,5959.734288598224,4.931904382699464,4313251.454472301,286.24385842842713,3074.9833444338537,55.33996081739669,1.8520284536734681,0.00023581424396568147
0.1890000000000001,5959.273369776767,4.93594119821549,4312689.740686654,286.23833593045,3075.3698351774806,55.31891287676098,1.8524357372444626,0.00024405053164818885
0.22900000000000012,5958.429415378809,4.940016238196448,4312128.035395643,286.2328129767896,3075.7354115968706,55.297870529563035,1.8528428695186436,0.0002522821991167137
0.26900000000000013,5949.429173036672,4.9478604625942255,4308913.437907485,286.20119514650304,3076.3503768706137,55.177667834986146,1.8551678480881868,0.0002992641141380489
0.3090000000000001,5940.326092097339,4.970544586978612,4305695.342611358,286.16952519895545,3078.3306194869056,55.057514309964375,1.8574907817964887,0.00034613241469571833
0.3490000000000001,5930.388550400047,4.994669386615012,4302474.611514896,286.1378115449569,3080.4317571523056,54.93744054069843,1.8598109867588133,0.00039287954859610556
0.38900000000000007,5920.963986285188,5.018209854337336,4299250.90895194,286.1060508110495,3082.48357149297,54.81743474839889,1.8621287020407837,0.00043950956328811573
0.42900000000000005,5911.351927736928,5.042122566186189,4296024.413550658,286.0742446873739,3084.5655960270733,54.69750332114194,1.8644437715696973,0.000486021530701389
0.46900000000000003,5901.921021662953,5.065897954959047,4292795.029456879,286.0423921597513,3086.635469692473,54.57764297189462,1.8667562498922854,0.0005324171519288518
0.509,5892.476552754319,5.08980673957348,4289562.805736697,286.01049364227424,3088.715690633628,54.45785552208337,1.869066080737057,0.000578696727690021
0.549,5883.119815705324,5.113706347654797,4286327.714838416,285.97854879314656,3090.794416923833,54.33814010328094,1.8713732664511165,0.0006248612798750707
0.5890000000000001,5873.797038333907,5.137672550620277,4283089.76932341,285.9465576661812,3092.8765325247696,54.21849726046933,1.8736777789020338,0.0006709114377391212
0.6290000000000001,5864.534175514261,5.161666955921922,4279848.960522687,285.9145201053276,3094.9595709990854,54.098926798636455,1.8759796061986311,0.0007168480215133415
0.6690000000000002,5855.317936206731,5.1857090018977265,4276605.2901338255,285.8824360566988,3097.045816461742,53.97942889043808,1.878278728668899,0.000762671743010749
0.7090000000000002,5846.155041793771,5.209789075311165,4273358.754699371,285.85030541520206,3099.134479063307,53.86000353273343,1.8805751306327199,0.0008083833524746766
0.7490000000000002,5837.041211565657,5.233913074367916,4270109.35356529,285.81812810322407,3101.2260477844698,53.740650824700765,1.882868794376936,0.0008539835638394613
0.7890000000000003,5835.5281620095375,5.258078503226638,4266857.084449567,285.7859040267893,3102.4459949858156,53.621370813098466,1.8851597034999228,0.0008994730964756101
0.8290000000000003,5833.634482743371,5.282842263011882,4263601.945738057,285.75363309828015,3103.6716599013803,53.50216357225842,1.8874478411785787,0.0009448526538722958
0.8690000000000003,5832.008590832988,5.307028696524219,4260343.592324033,285.721311821574,3104.870148965568,53.3830172781864,1.889733447212821,0.0009901260971367386
0.9090000000000004,5830.370529887516,5.33154772962097,4257082.177906281,285.6889416446404,3106.0835803046825,53.26393743796517,1.8920163875407392,0.0010352926522026028
0.9490000000000004,5828.847994493892,5.35598203971121,4253817.627431616,285.6565217463494,3107.2926393770863,53.1449216281662,1.8942966992831416,0.0010803536503755976
0.9890000000000004,5827.385171676528,5.380523149849469,4250549.970126943,285.6240523401116,3108.5061892812864,53.02597104188314,1.8965743417830594,0.0011253094533151783
1.0290000000000004,5826.008560894682,5.405084338224068,4247279.187612506,285.5915331663121,3109.7202168481044,52.907085229767475,1.8988493099035713,0.001170160851040673
1.0690000000000004,5824.707972421907,5.4297055442381765,4244005.282904665,285.55896417758856,3110.9365698440465,52.788264485808234,1.9011215826630896,0.0012149084290909503
1.1090000000000004,5823.489571640861,5.454369275740606,4240728.249192243,285.52634522855936,3112.154438684745,52.669508769242235,1.9033911464243831,0.0012595528541331099
1.1490000000000005,5822.35234027005,5.479083979425494,4237448.083911601,285.49367621576187,3113.374213826243,52.55081818981528,1.905657984460607,0.0013040947458196493
1.1890000000000005,5821.298477874198,5.503846433091296,4234164.7824284835,285.4609570147925,3114.5957458571816,52.43219279022062,1.9079220816255615,0.001348534734302472
1.2290000000000005,5820.328828027058,5.528658643590225,4230878.3408647105,285.42818750843907,3115.8191272194044,52.31363264326015,1.9101834222655454,0.0013928734347606185
1.2690000000000006,5816.017702256576,5.553520284172538,4227588.754840137,285.39536757414595,3116.58980703579,52.195137808626754,1.9124419911434918,0.0014371114588716306
1.3090000000000006,5809.852746350035,5.578720445042833,4224296.020031887,285.36249708958246,3117.159838847811,52.07670835205501,1.9146977730258923,0.0014812494098961366
1.3490000000000006,5803.692458019591,5.603782630805869,4220999.961218498,285.3295742245423,3117.7256473767575,51.958338521172465,1.916950877047978,0.0015252893985033917
1.3890000000000007,5797.554219109691,5.628888825867552,4217700.572304201,285.2965988352782,3118.2922398096703,51.84002835435276,1.9192012885183483,0.0015692320134974799
1.4290000000000007,5791.4267220259535,5.654055249385657,4214397.852438628,285.263570830108,3118.8598760335944,51.72177807243188,1.9214489889755684,0.0016130777899129314
1.4690000000000007,5785.314327896203,5.679271689439776,4211091.794914784,285.230490058446,3119.4281398706144,51.60358770078732,1.9236939642518849,0.0016568273073621536
1.5090000000000008,5779.2155138778035,5.704542766747055,4207782.395313166,285.1973563921922,3119.9950123914928,51.48545734658409,1.9259361985529238,0.0017004811180380045
1.5490000000000008,5773.131325741698,5.729866557562301,4204469.648231393,285.16416969302605,3120.5627817771147,51.36738708755518,1.9281756768277065,0.0017440397756844455
1.5890000000000009,5767.05928373402,5.755246412294159,4201153.548926601,285.1309298288435,3121.1314974439347,51.24937702767215,1.9304123835808091,0.0017875038212864008
1.629000000000001,5761.000153921807,5.780680500036747,4197834.091346964,285.0976366540254,3121.701122557735,51.131427230550635,1.932646304286273,0.001830873800336879
1.669000000000001,5754.95342302001,5.806170133257258,4194511.269825038,285.06429002639595,3122.2716827815307,51.01353777675705,1.9348774241661175,0.001874150248129666
1.709000000000001,5748.919063214255,5.831715374115653,4191185.078388586,285.03088980030964,3122.8431785395237,50.89570874049858,1.9371057286836904,0.0019173336958553985
1.749000000000001,5737.69069560312,5.857316759268672,4187855.5110226846,284.99743582927437,3123.05908136023,50.77794019845868,1.9393312033538135,0.0019604246684132823
1.789000000000001,5724.455264238706,5.883186977127944,4184522.5615722667,284.9639279649683,3123.1474498599523,50.66023222650231,1.9415538338105744,0.0020034236853413456
1.829000000000001,5711.404628495915,5.908961896528083,4181186.1031249464,284.9303648435229,3123.2350037151314,50.542580860997056,1.9437736911824117,0.002046332290149706
1.869000000000001,5698.485704071039,5.9348027954426446,4177846.135873274,284.8967463774968,3123.322775775346,50.4249864154078,1.9459907560602507,0.0020891509257424607
1.9090000000000011,5685.696024021523,5.9607040344378355,4174502.653357587,284.8630724121435,3123.4106911898566,50.30744898367436,1.9482050137785027,0.0021318800859305527
1.9490000000000012,5673.035175000836,5.986663943685114,4171155.6480764863,284.82934278176606,3123.4987512518414,50.18996862883761,1.9504164504158834,0.0021745202672020687
1.9890000000000012,5660.500570898329,6.0126839719887535,4167805.1129738158,284.79555732468225,3123.5869575913775,50.07254543275782,1.952625051743228,0.0022170719561452295
2.0290000000000012,5648.090494226229,6.03876418498753,4164451.0406745723,284.76171587552375,3123.6753095052645,49.955179470574514,1.9548308037608533,0.0022595356360166205
2.0690000000000013,5635.802991739216,6.064905122437504,4161093.4237527573,284.7278182679293,3123.763807248531,49.837870819643015,1.9570336925081118,0.0023019117845443906
2.1090000000000013,5623.636230046505,6.091107173648275,4157732.2546453173,284.6938643336711,3123.8524507588763,49.72061955666221,1.9592337041220658,0.0023442008747272397
2.1490000000000014,5611.5883837203055,6.117370776571376,4154367.5256793704,284.65985390292354,3123.941240082779,49.6034257585782,1.961430824816617,0.0023864033746753416
2.1890000000000014,5601.022957192522,6.143696355708474,4150999.2290640073,284.62578680417454,3123.986049204753,49.486289502310015,1.9636250408864633,0.0024285197477479812
2.2290000000000014,5600.472646023321,6.170107540258264,4147627.356893012,284.591662864247,3123.721049011034,49.369210864837825,1.9658163387034546,0.002470550452598394
2.2690000000000015,5600.586727500638,6.196720441344834,4144251.8884268515,284.55748177946697,3123.45215349926,49.252189504193055,1.9680047134855243,0.002512496048098521
2.3090000000000015,5601.552228248099,6.223234974875857,4140872.731240242,284.5232425187623,3123.184709861725,49.13522272648629,1.970190209677503,0.0025543576755103457
2.3490000000000015,5602.699767560363,6.24987196352954,4137489.909507409,284.4889452309844,3122.914748305592,49.01831168827999,1.972372791134194,0.002596135506629375
2.3890000000000016,5603.474806204694,6.276557940560911,4134103.4048204455,284.4545896331395,3122.643004276342,48.901456146973786,1.9745524510697487,0.0026378300590646784
2.4290000000000016,5604.424764220143,6.303313766998554,4130713.210556459,284.4201755611205,3122.3706828503477,48.784656251745,1.9767291745719264,0.0026794417481544285
2.4690000000000016,5605.55512935013,6.330133871215396,4127319.316837037,284.38570281725254,3122.097850360872,48.66791204879225,1.9789029489464955,0.0027209710106396077
2.5090000000000017,5606.871095815591,6.357020749827368,4123921.714825856,284.3511712138807,3121.82447887742,48.551223622433284,1.9810737607686693,0.0027624182695434878
2.5490000000000017,5608.378076793462,6.3839742828544805,4120520.3952363776,284.31658055821896,3121.5505688855583,48.43459104617308,1.9832415969027748,0.002803783946414367
2.5890000000000017,5610.081720341226,6.4109950621596505,4117115.348747072,284.2819306565598,3121.276113412369,48.31801439630614,1.9854064442170285,0.0028450684579996647
2.629000000000002,5611.987894852641,6.438083504899224,4113706.5658968226,284.2472213132047,3121.0011072928028,48.20149374850207,1.9875682896531222,0.0028862722171492335
2.669000000000002,5607.721927686304,6.465240071226436,4110294.0371095575,284.2124523307082,3120.506492949714,48.08502917861604,1.9897271202078244,0.0029273956326690046
2.709000000000002,5602.176785100673,6.492559058883491,4106877.7526885397,284.17762350981263,3119.9661256664654,47.968620762510255,1.9918829229351795,0.0029684391094188163
2.749000000000002,5596.654143591006,6.519868730859587,4103457.6532781166,284.1427341439316,3119.4261742408617,47.85226697312912,1.9940357181130781,0.0030094034420234516
2.789000000000002,5591.140741442755,6.547261437007602,4100033.737438048,284.1077841159883,3118.8848996419174,47.735968168235715,1.9961854869801892,0.0030502889566613963
2.829000000000002,5585.638114839233,6.574722752802701,4096605.9938397394,284.0727732074873,3118.3425640963924,47.61972438886251,1.9983322173912978,0.003091096053716345
2.869000000000002,5580.1461167744155,6.602255003218521,4093174.4123480357,284.0377012114919,3117.799126110727,47.50353571866592,2.0004758963697866,0.0031318251193779632
2.909000000000002,5574.664641016198,6.629858555352219,4089738.9826068482,284.00256791819027,3117.2545771724726,47.38740223812589,2.0026165110545406,0.003172476536950598
2.949000000000002,5569.193633523987,6.657533839627453,4086299.694123297,283.9673731157464,3116.7089085524285,47.27132402728301,2.0047540486418525,0.003213050686228098
2.989000000000002,5563.733022467119,6.6852813419134,4082856.53629153,283.93211659053634,3116.1621103060975,47.15530116651688,2.006888496367988,0.0032535479433507
3.029000000000002,5558.282742583988,6.713101528594128,4079409.4983806475,283.8967981270175,3115.6141729044716,47.03933373616929,2.0090198415155927,0.0032939686809435077
3.069000000000002,5552.842729259657,6.740994873584713,4075958.5695377127,283.86141750775215,3115.065086691892,46.92342181665258,2.0111480714101067,0.003334313268135674
3.109000000000002,5542.454868039704,6.76896185170155,4072503.738786744,283.8259745133897,3114.344725238475,46.80756548843083,2.0132731734188214,0.003374582070609851
3.1490000000000022,5531.354039692012,6.797056796931292,4069044.9950285503,283.7904689226576,3113.5968037037414,46.69176483202712,2.015395134949413,0.0034147754506445613
3.1890000000000023,5520.317596622196,6.825180054053625,4065582.299543793,283.7549002298166,3112.8479360500583,46.576019053232194,2.0175139613475372,0.003454893978507222
3.2290000000000023,5509.3251183771235,6.853387967640894,4062115.646365097,283.7192682644864,3112.0948751391247,46.46032840765509,2.0196296364651762,0.0034949379666529656
3.2690000000000023,5498.37747057489,6.881672038285135,4058645.022831046,283.6835727868775,3111.340179347995,46.344692941548246,2.0217421484811995,0.003534907774966832
3.3090000000000024,5487.476836705742,6.9100306322024565,4055170.416348895,283.6478135571899,3110.5839214875023,46.229112707596656,2.023851485476347,0.003574803758526065
3.3490000000000024,5476.621724530253,6.938466651351752,4051691.8154037376,283.6119903460075,3109.8260214592524,46.11358779679343,2.0259576347832216,0.0036146262599954233
3.3890000000000025,5465.81201787289,6.96697985858842,4048209.207937957,283.5761029176248,3109.066485585918,45.99811828700215,2.0280605840360644,0.0036543756220720567
3.4290000000000025,5455.0472940633235,6.995570895081842,4044722.581857211,283.5401510352445,3108.3052972371192,45.88270425902394,2.030160320841441,0.0036940521836532486
3.4690000000000025,5444.327180730188,7.024240239387995,4041231.924926335,283.50413445989795,3107.542443880755,45.76734579331735,2.032256832843954,0.003733656280664538
3.5090000000000026,5434.461562964788,7.052988391322474,4037737.224782638,283.4680529505739,3106.744930295278,45.652042970437535,2.034350107716089,0.003773188245992071
3.5490000000000026,5427.373527870443,7.081821696328533,4034238.4689351344,283.43190626420227,3105.8327726223683,45.536795871030286,2.036440133157141,0.0038126484095214073
3.5890000000000026,5420.271782052551,7.110749032768474,4030735.641867166,283.39569412568324,3104.917935929206,45.42160448511163,2.0385268987282785,0.003852037119783487
3.6290000000000027,5413.178511890257,7.139738631270634,4027228.7218861906,283.3594161951833,3104.001663585909,45.306468614307015,2.0406103978177317,0.003891354767093471
3.6690000000000027,5406.086897392629,7.168814485192482,4023717.699111105,283.3230722541773,3103.083181939203,45.191388434915204,2.042690616246949,0.003930601649526547
3.7090000000000027,5398.998043656481,7.197970839392548,4020202.5598983048,283.2866620444714,3102.1626684027983,45.07636400953593,2.0447675421634086,0.003969778089423593
3.7490000000000028,5391.911735894257,7.227209229935246,4016683.291137081,283.25018531260827,3101.2400776192417,44.96139542166381,2.046841163314579,0.004008884401353616
3.789000000000003,5384.827844955086,7.256530116161386,4013159.879526375,283.2136418023767,3100.315395330619,44.846482753073346,2.0489114675043143,0.004047920897531878
3.829000000000003,5377.746272031749,7.285933993007337,4009632.311622142,283.1770312552929,3099.388606807697,44.73162608532553,2.050978442561237,0.00408688788749439
