time,thrust,OF,ox_tank.pressure,ox_tank.temperature,combustion_chamber.temperature,propellant_mass,propellant_CG,combustion_chamber.fuel_grain.geometry.length_regressed
0.007,236.30620070746605,6.254399889257109,4152159.7604081393,284.6375267985303,2904.5421179375235,55.256188565744985,1.8844293080720147,1.0553159865109042e-05
0.014,917.185726568965,5.874469417610343,4151290.247671054,284.628730993453,3062.2129376281023,55.22314705874743,1.8851030305477126,2.1049414371446035e-05
0.021,2021.7496941138484,5.795842975603144,4150478.163134273,284.62051487746186,3113.8478651680907,55.192245102224604,1.8857305901306707,3.097920339866415e-05
0.028,2910.7168078950513,5.742423375088648,4149720.392204258,284.6128471868519,3141.1937151669163,55.16336808665562,1.886314611997342,4.036685604609664e-05
0.035,3612.204678639262,5.705001454486317,4149010.778549332,284.6056658395497,3158.112170471269,55.13628844926438,1.8868601177041375,4.926769066108042e-05
0.042,4157.778488409793,5.681581770958029,4148342.510527521,284.59890207495295,3169.373049709583,55.110753881348344,1.8873726159084803,5.774534941218961e-05
0.049,4576.962637558739,5.66972886946758,4147708.7725689886,284.59248704917513,3177.2591607313916,55.08651145649085,1.8878575854519777,6.58653875054727e-05
0.056,4895.741419709215,5.666521249645203,4147103.1658225376,284.5863560984082,3182.9497214113358,55.06332331602498,1.8883201461585533,7.369080761696818e-05
0.063,5136.057738587642,5.669103169591127,4146519.9823197173,284.58045152096344,3187.152109813349,55.04097697840474,1.8887648479828705,8.127888296183387e-05
0.07,5315.907742602314,5.67507090488832,4145954.339954644,284.57472395057465,3190.282881892737,55.01929049040287,1.889195570817017,8.86793474765664e-05
0.07700000000000001,5449.698515267859,5.682657576436991,4145402.205844822,284.56913259916973,3192.642851943591,54.9981134087633,1.8896155118542501,9.59337766098044e-05
0.08400000000000002,5548.728875548458,5.690733941059168,4144860.341934971,284.56364471147083,3194.416587132928,54.977324855763634,1.8900272331253638,0.00010307586061647943
0.09100000000000003,5621.713561879037,5.698664366026796,4144326.205554339,284.55823456243144,3195.7706890407694,54.956829865045165,1.8904327432644026,0.00011013224012900007
0.09800000000000003,5675.298882891921,5.706149256656916,4143797.8343945276,284.5528822958994,3196.79504607329,54.936555121838616,1.8908335904372207,0.00011712358241209625
0.10500000000000004,5714.494408229051,5.713097168445109,4143273.7342210016,284.54757279007623,3197.584505868636,54.9164447883502,1.8912309522723314,0.00012406568500643685
0.11200000000000004,5743.053688402647,5.7195232096210695,4142752.778520103,284.5422946431234,3198.1967554480207,54.89645676439126,1.8916257158040546,0.00013097049043397466
0.11900000000000005,5763.7708383971,5.725492777956152,4142234.1244882275,284.53703932370996,3198.6734624630476,54.87655955251495,1.892018544165022,0.00013784695076305044
0.12600000000000006,5778.716501747108,5.731085599275045,4141717.145101174,284.5318004839927,3199.0485582478686,54.856729720895544,1.8924099303788016,0.0001447017349707541
0.13300000000000006,5789.419815660571,5.736378866241571,4141201.3758097203,284.52657342042187,3199.3518460427354,54.8369499113477,1.8928002394939076,0.00015153978842474835
0.14000000000000007,5797.007958776968,5.741439939749844,4140686.4734859,284.5213546584033,3199.602025668132,54.81720730463936,1.893189740989491,0.00015836476612906793
0.14700000000000008,5802.310258982053,5.746323915221029,4140172.1852341043,284.51614163671934,3199.813019967539,54.797492454369134,1.8935786333676703,0.00016517936308866867
0.15400000000000008,5805.9361328847845,5.751074449174141,4139658.32496508,284.51093247046845,3199.995155140188,54.77779841103784,1.8939670626088867,0.00017198556306706724
0.1610000000000001,5808.332988403996,5.7557253316130605,4139144.7559087877,284.5057257740834,3200.1560654820855,54.758120068192326,1.894355135938682,0.00017878482458645522
0.1680000000000001,5809.829077185472,5.76030230177677,4138631.3776279194,284.5005205298848,3200.3013818160225,54.73845367689394,1.8947429320450473,0.00018557821919848902
0.1750000000000001,5810.665116469671,5.764824750189031,4138118.1164101404,284.49531599082354,3200.4352500654604,54.71879648655016,1.8951305086335042,0.0001923665338416729
0.1820000000000001,5811.017574198641,5.769307170965866,4137604.9181792466,284.4901116087145,3200.560718976204,54.69914647995527,1.8955179079987226,0.00019915034638232483
0.22200000000000011,5811.0157888885715,5.773760338229397,4137091.7432753174,284.4849069813864,3200.6800284219703,54.67950217821961,1.895905161125434,0.00020593008124163172
0.2620000000000001,5804.135554396485,5.783361662813834,4134154.9838586873,284.45511305247294,3200.8327407274855,54.56728775734479,1.898116781174297,0.0002446190396122842
0.3020000000000001,5799.460535465261,5.8069589751469595,4131215.066798313,284.42527126377,3201.3934267325913,54.45511426931478,1.900326663718734,0.00028321659841573773
0.3420000000000001,5793.52193556319,5.833115666356692,4128272.7800629237,284.39538955033566,3202.0027436735513,54.343011063765545,1.9025341803363751,0.0003217150516330407
0.38200000000000006,5782.8290746513385,5.857690483792312,4125327.4723311663,284.3654612350408,3202.204105852837,54.230954167898474,1.9047398199263486,0.0003601217845714682
0.42200000000000004,5770.067669933859,5.883250406195607,4122379.4365626974,284.3354892293204,3202.30321162014,54.11895457684177,1.9069433390681603,0.0003984342839437536
0.462,5757.717533739553,5.908312665828044,4119428.4270186485,284.30547096956076,3202.400447687522,54.007003385693466,1.9091449109646221,0.00043665564199729234
0.502,5745.410447675633,5.933573397194027,4116474.512552781,284.27540708927836,3202.4982122885103,53.89510331497078,1.9113444656508092,0.00047478566705466576
0.542,5733.266403315364,5.958809518796343,4113517.6650144323,284.2452972352212,3202.5958316242163,53.783253510859275,1.9135420080461345,0.0005128251668193149
0.5820000000000001,5721.23976320609,5.984100746856561,4110557.890155748,284.21514139883664,3202.691136239636,53.67145437189863,1.9157375170150364,0.0005507745913915628
0.6220000000000001,5709.34324395985,6.009418924674008,4107595.1812759344,284.1849394445179,3202.786331520655,53.559705842226016,1.9179309810368563,0.000588634512244709
0.6620000000000001,5697.57028247548,6.0347735412139185,4104629.535785628,284.1546912782558,3202.881554239748,53.44800802063266,1.9201223854807024,0.0006264054517434276
0.7020000000000002,5685.920291043419,6.060162048789301,4101660.949794561,284.1243967925024,3202.9767955093307,53.336360961764804,1.9223117167542414,0.0006640879388150031
0.7420000000000002,5674.390777015047,6.085585662909067,4098689.4197295173,284.09405588265895,3203.0720575932714,53.224764735433254,1.9244989610640695,0.000701682492491269
0.7820000000000003,5662.97996363622,6.11104428367064,4095714.941775039,284.0636684413677,3203.1673389465345,53.11321940611737,1.9266841048411119,0.0007391896276994019
0.8220000000000003,5651.685875530795,6.136538276194727,4092737.512071556,284.03323436053023,3203.262639378998,53.0017250401945,1.9288671345879607,0.0007766098533364168
0.8620000000000003,5646.753206950115,6.162067840495468,4089757.1266462086,284.0027535305967,3203.059422455421,52.890281703396916,1.9310480369298788,0.0008139436730560258
0.9020000000000004,5643.363353460508,6.187798635472522,4086773.7814378203,283.97222584081743,3202.7989906975563,52.778889461708125,1.9332267985942289,0.0008511915851006205
0.9420000000000004,5640.614794982942,6.213390069574466,4083787.3923140718,283.94165036012953,3202.540009215278,52.66754548417588,1.9354034665528514,0.0008883548771049371
0.9820000000000004,5638.497795159038,6.239065782625748,4080797.975948116,283.9110271882979,3202.280251178729,52.556250605845534,1.9375780116762429,0.0009254338218021276
1.0220000000000005,5637.039044432805,6.264765601777751,4077805.5219397275,283.8803561476811,3202.0203193619354,52.445004682988426,1.9397504252681705,0.0009624289559334833
1.0620000000000005,5636.2621929311745,6.290506563895391,4074810.0272476664,283.84963713567504,3201.7600408848575,52.333807841923786,1.9419206931246173,0.000999340737155889
1.1020000000000005,5636.196901308265,6.316284207515592,4071811.4866535687,283.81887002704434,3201.4994592074268,52.222660133632246,1.9440888027016485,0.001036169638842368
1.1420000000000006,5636.877416927483,6.342100089362648,4068809.8954260675,283.7880547012177,3201.238557359601,52.11156163009788,1.9462547411150302,0.001072916123778709
1.1820000000000006,5638.343264149213,6.367954088888573,4065805.24857938,283.7571910346823,3200.977335165287,52.00051239752302,1.9484184956938684,0.001109580651551777
1.2220000000000006,5640.639700967718,6.393846547465321,4062797.5410782667,283.72627890308235,3200.7157878634175,51.889512503709625,1.9505800538260112,0.0011461636766043747
1.2620000000000007,5643.818263718796,6.419777680535389,4059786.767782667,283.6953181806465,3200.453911951953,51.77856201605904,1.952739402997836,0.0011826656488466635
1.3020000000000007,5647.424113470975,6.445747736793755,4056772.923462961,283.6643087403406,3200.158873844138,51.66766100211128,1.9548965307814845,0.0012190870135752516
1.3420000000000007,5647.615036038651,6.471771951925539,4053756.0027963445,283.633250453826,3199.639019386591,51.556809529408284,1.9570514248361044,0.0012554282115747476
1.3820000000000008,5647.146500758234,6.497919871306943,4050735.9933569906,283.6021431192314,3199.115757543941,51.44600741550187,1.9592040780596516,0.001291689746384188
1.4220000000000008,5646.024536578367,6.5239897605526345,4047712.8447622787,283.5709861428759,3198.5944032077455,51.33525313099004,1.9613545111678288,0.001327872478117523
1.4620000000000009,5644.213683565509,6.550145290114945,4044686.57040971,283.53977958756667,3198.071535519493,51.2245474269439,1.96350269792354,0.0013639766486511866
1.502000000000001,5639.491451682616,6.576328243316166,4041657.1587455613,283.50852325867567,3197.5458979172436,51.113890167851764,1.9656486304468663,0.001400002733993819
1.542000000000001,5634.524071488637,6.602556354902096,4038624.605325696,283.4772170344889,3197.01930612423,51.00328147477002,1.967792295650763,0.0014359511371006839
1.582000000000001,5629.567472318984,6.628823279052795,4035588.903295198,283.4458607680448,3196.492141025703,50.892721386392715,1.9699336822206006,0.0014718222788477535
1.622000000000001,5624.621112745409,6.6551319857204465,4032550.0468869614,283.41445432323064,3195.964342909082,50.78220998333775,1.9720727780553728,0.0015076165648360536
1.662000000000001,5619.685001684402,6.681482025411437,4029508.0299325385,283.3829975594091,3195.4359190970995,50.67174733526798,1.9742095713541163,0.0015433343995856766
1.702000000000001,5614.759040315511,6.707873784760949,4026462.8462403635,283.35149033531906,3194.906860954907,50.561333514302504,1.9763440503388359,0.0015789761830097286
1.742000000000001,5609.843148258344,6.734307479247356,4023414.4895155737,283.3199325082431,3194.3771630461133,50.45096859217548,1.9784762033115326,0.0016145423112251854
1.7820000000000011,5601.614765859337,6.760783351923203,4020362.953373987,283.28832393414723,3193.7301684329022,50.34065264072799,1.9806060186427963,0.0016500331764744889
1.8220000000000012,5591.324152431465,6.787339907989793,4017308.231340617,283.25666446766127,3193.0084766299524,50.23038573185649,1.982733484771567,0.0016854491671909257
1.8620000000000012,5581.076452486411,6.813917358085306,4014250.2995763407,283.22495378289943,3192.2863035610244,50.12016733205632,1.9848586025807073,0.0017207908274362953
1.9020000000000012,5570.882489259005,6.840525670349236,4011189.1474660477,283.19319169041535,3191.5636284991197,50.009997377419,1.9869813633914328,0.0017560585730808723
1.9420000000000013,5560.73292709424,6.867183394581959,4008124.77058222,283.1613780645172,3190.8399158142265,49.8998760243242,1.9891017540856182,0.0017912527583222836
1.9820000000000013,5550.630230504276,6.893882989377206,4005057.1612118785,283.1295127450173,3190.1153682033346,49.78980331724708,1.9912197638968443,0.0018263737632324792
2.022000000000001,5540.573299089247,6.92062679570783,4001986.312478558,283.0975955799873,3189.3899234873493,49.67977933321359,1.9933353814564851,0.0018614219557839574
2.062000000000001,5530.561811125556,6.947414645037402,3998912.217219911,283.0656264141053,3188.663584635693,49.56980414251155,1.9954485955951824,0.001896397702224214
2.102000000000001,5520.595336072812,6.974246826949851,3995834.8682091325,283.03360509095,3187.9363432079895,49.45987781643605,1.9975593951835204,0.0019313013650879213
2.1420000000000012,5510.673450524772,7.001123586224903,3992754.2581283106,283.0015314527192,3187.2081917657547,49.35000042636059,1.9996677691498415,0.0019661333034855784
2.1820000000000013,5500.795740124461,7.028045160499067,3989670.379566949,282.96940534020945,3186.479123120301,49.24017204369008,2.0017737064800643,0.00200089387315992
2.2220000000000013,5492.025863928766,7.055011792633381,3986583.225023977,282.9372265928323,3185.7046635377806,49.13039273993381,2.0038771962150856,0.0020355834265103545
2.2620000000000013,5485.561367022777,7.0820325489671205,3983492.7869070205,282.90499504860185,3184.8328881463317,49.02066258668481,2.0059782274500955,0.0020702023126410963
2.3020000000000014,5479.088313018004,7.109107092925863,3980399.053669617,282.87271050380804,3183.959568792512,48.91098152239246,2.0080767920344327,0.0021047509118409086
2.3420000000000014,5472.625649658752,7.136208323720914,3977302.0108596752,282.84037272384586,3183.085787173437,48.80134938946238,2.01017288380841,0.0021392296257704527
2.3820000000000014,5466.166463708131,7.163362338244347,3974201.653619577,282.8079815737578,3182.210690501117,48.69176636484445,2.0122664898788143,0.0021736387663624985
2.4220000000000015,5459.712196243339,7.190561111760299,3971097.973494992,282.7755368805863,3181.332406660415,48.582232504611575,2.014357599855475,0.0022079786737146767
2.4620000000000015,5453.260235573406,7.217809288994974,3967990.962722883,282.7430384781268,3180.452272951602,48.47274789188185,2.0164462028512102,0.002242249677885721
2.5020000000000016,5446.812518935714,7.245102316297408,3964880.612171239,282.71048618537776,3179.5710671462207,48.36331256609032,2.018532288911182,0.002276452117126154
2.5420000000000016,5440.368947186622,7.272442399033061,3961766.913666028,282.6778798308714,3178.688725406991,48.25392660286838,2.020615847396663,0.0023105863173763165
2.5820000000000016,5433.929311851726,7.299829902365066,3958649.8589361086,282.645219241642,3177.805234080997,48.14459007776982,2.022696867718249,0.002344652601649899
2.6220000000000017,5427.493557924442,7.327264912062791,3955529.4395613587,282.6125042426765,3176.9205900259653,48.03530306451065,2.024775339370338,0.002378651290519567
2.6620000000000017,5421.042784206568,7.354747721382977,3952405.64705096,282.5797346577291,3176.010894522097,47.92606563765702,2.0268512518759123,0.0024125827014643644
2.7020000000000017,5414.530081142294,7.382280812126015,3949278.472817302,282.5469103090426,3175.0188407617507,47.81687787174073,2.0289245948034345,0.0024464471491318887
2.7420000000000018,5408.015185176387,7.409867393501832,3946147.907225201,282.5140310073542,3174.0252241491416,47.70773980901046,2.0309953584138993,0.002480244953565002
2.782000000000002,5401.50570814784,7.437494547133901,3943013.9385310193,282.48109654070873,3173.030587595865,47.59865142374335,2.033063534373681,0.0025139764492241685
2.822000000000002,5394.999015978584,7.465173141512819,3939876.558864631,282.4481067373097,3172.0345388636724,47.48961282512364,2.0351291116781676,0.0025476419335116766
2.862000000000002,5388.495485872707,7.492900344031987,3936735.758946587,282.4150614100382,3171.0371753876166,47.380624077805244,2.0371920802586145,0.0025812417124412563
2.902000000000002,5381.995005877034,7.520676890917633,3933591.529647792,282.3819603728312,3170.0384720725274,47.27168525485838,2.0392524299171986,0.002614776087216449
2.942000000000002,5375.497466109619,7.548503029956659,3930443.8617339544,282.3488034379905,3169.0384195049746,47.16279642911269,2.041310150500049,0.002648245356461508
2.982000000000002,5369.002785264812,7.576378976783418,3927292.745866418,282.3155904161858,3168.0370097906625,47.053957673199655,2.043365231895503,0.0026816498162419967
3.022000000000002,5362.510872826861,7.604304987247248,3924138.172616363,282.2823211165984,3167.034233600885,46.94516906004246,2.0454176640234283,0.002714989759972546
3.062000000000002,5356.021640867027,7.632281305150588,3920980.132459361,282.2489953468582,3166.0300820440766,46.836430662684805,2.04746743683781,0.002748265478491152
3.102000000000002,5349.5146920518755,7.660308176547483,3917818.615776099,282.21561291304556,3164.997047159058,46.72774255432727,2.049514540325186,0.002781477260080566
3.142000000000002,5342.980841223203,7.688375287088638,3914653.6128520453,282.18217361968203,3163.911897029667,46.61910480832912,2.051558964503785,0.0028146253904979793
3.182000000000002,5336.462347151782,7.7164854762233475,3911485.1182386386,282.1486773158434,3162.825743494114,46.510517643734374,2.0536006965262255,0.0028477101166484737
3.222000000000002,5329.941690252681,7.7446657291543595,3908313.1287891497,282.11512387450966,3161.737355441061,46.40198135873222,2.0556397220148077,0.002880731663483115
3.2620000000000022,5323.424545024244,7.772891240490984,3905137.6321610156,282.0815130709037,3160.6476905106833,46.29349594760665,2.0576760326782684,0.0029136903295848074
3.3020000000000023,5316.909867363523,7.801169353132399,3901958.6189237316,282.0478447104661,3159.556476573183,46.18506150520935,2.0597096182552073,0.002946586386031204
3.3420000000000023,5310.397573325677,7.8294993417336975,3898776.079049753,282.0141185917472,3158.4626696829514,46.076678109838646,2.0617404688449965,0.0029794201056960955
3.3820000000000023,5303.887288000619,7.857881829636265,3895590.0024108402,281.9803345116499,3157.365598052962,45.968345839816365,2.0637685745770686,0.003012191759135097
3.4220000000000024,5297.378712212346,7.88631702306817,3892400.378625058,281.94649226379937,3156.266969285876,45.86006476844501,2.0657939257099707,0.0030449016158612743
3.4620000000000024,5290.872386062815,7.914804146791357,3889207.197104819,281.9125916390422,3155.1668200912495,45.75183496564961,2.067816512597667,0.003077549943956461
3.5020000000000024,5284.368031414398,7.943344352816496,3886010.4474930163,281.8786324300709,3154.065106280491,45.64365651239309,2.06983632540364,0.0031101370065316973
3.5420000000000025,5277.836996605756,7.971937643940428,3882810.1192309624,281.8446144268346,3152.9218048477333,45.535529486392065,2.0718533543831144,0.0031426630652947557
3.5820000000000025,5271.308423655019,8.00056565611637,3879606.201677472,281.8105374177958,3151.758846874668,45.42745396607046,2.0738675898040566,0.0031751283795960665
3.6220000000000026,5264.783661748636,8.029259440730389,3876398.6915833284,281.7764012694968,3150.5938185516356,45.31943027573064,2.075879017115816,0.0032075331461727634
3.6620000000000026,5258.259179057108,8.058011075799238,3873187.5792090036,281.74220577891913,3149.426951750143,45.211458529023616,2.0778876259579393,0.003239877611695177
3.7020000000000026,5251.736771672239,8.086814631972345,3869972.852870814,281.7079507217256,3148.2584954870526,45.10353877925468,2.079893407184029,0.0032721620355672
3.7420000000000027,5245.215950280528,8.115672894342177,3866754.5017782813,281.6736358824551,3147.088339846194,44.99567111250174,2.081896351025891,0.0033043866670457575
3.7820000000000027,5238.696661051456,8.14458564438316,3863532.5148241306,281.63926104163556,3145.9164926497924,44.88785560793984,2.083896447874656,0.0033365517550217965
3.8220000000000027,5232.178844575783,8.173553132025527,3860306.8808129593,281.6048259782119,3144.7429444271947,44.78009234535597,2.0858936881320744,0.00336865754619661
3.8620000000000028,5225.662417915319,8.202575634427099,3857077.588458057,281.5703304695057,3143.567684321842,44.672381405059646,2.0878880622116216,0.0034007042851274434
