time,thrust,OF,ox_tank.pressure,ox_tank.temperature,combustion_chamber.temperature,propellant_mass,propellant_CG,combustion_chamber.fuel_grain.geometry.length_regressed
0.007,234.14142191372923,5.997283628660488,4002619.661694645,283.10417984801904,2894.932430781813,55.12945038598491,1.8897589472562828,1.0392984926531174e-05
0.014,883.0987943111376,5.624372337029882,4001802.122174707,283.09568060090197,3046.2377788735225,55.09699439856132,1.8904040150645127,2.0729138924648428e-05
0.021,1959.5981458587594,5.547318052314913,4001039.7944667297,283.08775417882083,3095.9289797864626,55.066684585501804,1.891003820047093,3.0495103354748983e-05
0.028,2824.16131994479,5.4950067878609135,4000329.5725849112,283.0803685240364,3121.432200379257,55.03840185750333,1.8915610309784632,3.971634290913234e-05
0.035,3503.847979029664,5.458591182614358,3999665.453716602,283.073461415447,3136.8347729018774,55.01191482788445,1.8920806442611358,4.8449314632864036e-05
0.042,4031.144384202685,5.436044772832087,3999040.814463875,283.06696413224626,3147.067271444144,54.986967583392556,1.8925681249968755,5.6758834735079196e-05
0.049,4435.391448212533,5.424861015237882,3998449.048730486,283.0608080915391,3154.3081436754414,54.963304344287764,1.8930288905353494,6.471149005024014e-05
0.056,4742.046483475133,5.422106040644543,3997883.980046364,283.05492914307246,3159.652550170032,54.94068552214898,1.893467981539672,7.237103399055531e-05
0.063,4972.684379523035,5.4249141985369205,3997340.1216662703,283.0492702817285,3163.7096072150293,54.91889794633116,1.8938898584731663,7.979519913301058e-05
0.07,5144.912226583695,5.430916848576656,3996812.801989064,283.04378295904615,3166.838352669527,54.89775988022444,1.8942983072822321,8.70339012006973e-05
0.07700000000000001,5272.761801125461,5.438401298248641,3996298.1788178384,283.0384272376573,3169.26103174427,54.87712170005179,1.8946964339258272,9.412869185255099e-05
0.08400000000000002,5367.208629806932,5.446270770567817,3995793.179158587,283.0331711700229,3171.149359840801,54.85686364419263,1.8950867175369677,0.00010111311468812485
0.09100000000000003,5436.6921176982605,5.453930699607911,3995295.39971592,283.0279897671561,3172.6266078847684,54.83689199889391,1.895471093826459,0.00010801358845040717
0.09800000000000003,5487.623964868306,5.46111158417275,3994802.992527032,283.02286381169705,3173.786008390945,54.817134678224505,1.8958510492680554,0.00011485053388963278
0.10500000000000004,5524.829319145481,5.467738520310215,3994314.555038894,283.0177787163712,3174.6978497879095,54.79753695868893,1.8962277108487702,0.0001216395091634628
0.11200000000000004,5551.910080229153,5.473839436101845,3993829.0332205347,283.01272351741574,3175.4297568749625,54.77805771065681,1.896601924758924,0.00012839223845534815
0.11900000000000005,5571.542037457181,5.479485313874289,3993345.6407283144,283.0076900345457,3176.0254532777208,54.75866624945189,1.8969743218114792,0.00013511748528097407
0.12600000000000006,5585.703695213634,5.484758832068603,3992863.7941279933,283.002672197641,3176.5189421486652,54.73933980949586,1.8973453697365779,0.00014182176043929832
0.13300000000000006,5595.853379920034,5.489738088536686,3992383.062267323,282.99766552042564,3176.9362468350287,54.72006156900938,1.8977154139778083,0.00014850987967225096
0.14000000000000007,5603.063507749216,5.494490175676772,3991903.127464745,282.9926666969283,3177.297049730768,54.700819135181874,1.898084708923756,0.0001551853934665576
0.14700000000000008,5608.121361277811,5.4990697116147,3991423.7561483816,282.98767329616294,3177.6161059124506,54.68160339796532,1.898453441509578,0.00016185091339357595
0.15400000000000008,5611.6041816604975,5.503519690840549,3990944.7768548285,282.9826835333154,3177.904403938864,54.66240767111639,1.8988217488873613,0.0001685083572506991
0.1610000000000001,5613.934825099777,5.507873217192925,3990466.063855712,282.97769609944135,3178.1700875599654,54.64322705296385,1.8991897315672395,0.00017515913179175728
0.1680000000000001,5615.422853549053,5.512155398011892,3989987.52503296,282.9727100353415,3178.4191706435877,54.62405795308156,1.899557463142837,0.00018180426817852646
0.1750000000000001,5616.294785464761,5.516385077336829,3989509.0929323984,282.9677246384903,3178.6560826079162,54.60489774308141,1.899924997463581,0.00018844452198209404
0.1820000000000001,5616.716320220108,5.520576294340931,3989030.7181797703,282.96273939453454,3178.884079659318,54.5857444996559,1.9002923739107158,0.00019508044679703357
0.22200000000000011,5616.808641327245,5.524739453742839,3988552.36464434,282.95775392696925,3179.105552236165,54.56659681586004,1.9006596212712625,0.00020171244831703594
0.2620000000000001,5610.585461057203,5.533717481242625,3985814.8959966428,282.92921508642866,3179.4845718766696,54.45721977769668,1.9027571510502768,0.00023955920387309492
0.3020000000000001,5606.210521071738,5.5558481309947165,3983074.509326758,282.9006312180615,3180.0691735783216,54.34788442888856,1.9048533208627367,0.0002773182057120348
0.3420000000000001,5600.503943037434,5.580425462344283,3980331.8973076614,282.8720094890167,3180.6267452202424,54.238617696904385,1.9069475665204316,0.0003149823540231408
0.38200000000000006,5595.349699188484,5.6034312096227135,3977586.419750685,282.84334316073324,3181.150970913563,54.12939495655148,1.9090403793483537,0.0003525592103678282
0.42200000000000004,5589.971941268161,5.627164996132213,3974838.3514841665,282.81463504208165,3181.6902625254575,54.02022696524162,1.9111315265327922,0.00039004626939740663
0.462,5584.708478673508,5.650622662204189,3972087.5693075974,282.7858837863812,3182.223496272097,53.911109115602244,1.9132210897757065,0.0004274453803406859
0.502,5579.41254286854,5.674243502277457,3969334.12357468,282.75708985952224,3182.759916502301,53.80204349550171,1.9153090139596656,0.00046475649041628514
0.542,5574.1472773792575,5.697836579997775,3966577.9890700215,282.7282529374369,3183.2955013769597,53.69302928653042,1.9173953035103584,0.0005019803628041
0.5820000000000001,5568.885343782905,5.721484926386464,3963819.173145268,282.69937303634384,3183.8319997773206,53.584066925895065,1.9194799373113702,0.0005391174009070993
0.6220000000000001,5563.638215629962,5.745153056482289,3961057.6690086843,282.6704500242735,3184.368662519832,53.47515631111375,1.9215629053897836,0.0005761681546681738
0.6620000000000001,5558.4008055067,5.768856498287197,3958293.475803374,282.6414838311394,3184.9058163827763,53.36629757061994,1.9236441931730814,0.0006131331037741747
0.7020000000000002,5553.1750609573,5.7925889308575504,3955526.590020935,282.6124743588514,3185.443326984065,53.25749073464952,1.925723788207337,0.0006500127501829425
0.7420000000000002,5547.959960088636,5.816353343020453,3952757.0091561195,282.5834215195896,3185.9812565621532,53.14873587510124,1.9278016773007642,0.0006868075789884436
0.7820000000000003,5542.279790666173,5.840148775626543,3949984.730160152,282.5543252195937,3186.4859076280345,53.04003304640624,1.929877847728276,0.0007235180750438096
0.8220000000000003,5530.698362304684,5.863997078189391,3947209.7500930266,282.5251853659983,3186.5699482495215,52.93138231040666,1.9319522867223338,0.0007601447160870661
0.8620000000000003,5518.927644103472,5.888115355971959,3944432.0558168427,282.49600175852066,3186.651727984205,52.822783345392665,1.9340249894287496,0.0007966880811139187
0.9020000000000004,5507.467283663081,5.911943060604223,3941651.523482664,282.46677303231604,3186.732994404478,52.71423164203102,1.936096036276098,0.0008331499010944079
0.9420000000000004,5496.04528628195,5.935946086499721,3938868.2059958726,282.4374996791102,3186.8146214327003,52.60572940474289,1.9381653711070232,0.0008695300402758871
0.9820000000000004,5484.7658488618345,5.959928444695047,3936082.0779742375,282.4081813675724,3186.896132063147,52.4972758724853,1.9402329982164142,0.0009058291793723019
1.0220000000000005,5473.588447240123,5.983964124968228,3933293.1436624015,282.37881807762705,3186.977715995014,52.38887140938737,1.9422988991082697,0.0009420476834565332
1.0620000000000005,5462.525160475429,6.00802653101312,3930501.3963990062,282.34940967418527,3187.0593018166624,52.28051597035847,1.9443630637043354,0.00097818602595323
1.1020000000000005,5451.569405983846,6.032125475010164,3927706.8333142493,282.3199560617884,3187.1409147011364,52.172209656684934,1.946425479046553,0.0010142446354775658
1.1420000000000006,5440.7212049394875,6.056257768083397,3924909.4500819454,282.29045712935715,3187.2225448401036,52.063952517910025,1.9484861333217198,0.0010502239504382948
1.1820000000000006,5429.978308719508,6.080424819350329,3922109.2427754547,282.2609127697365,3187.3032235806354,51.95574462178753,1.9505450144390526,0.001086124399877109
1.2220000000000006,5419.338748105649,6.10462686717799,3919306.2072175182,282.23132287284017,3187.3823346923755,51.84758602979725,1.952602110525814,0.0011219464102456013
1.2620000000000007,5408.8008450389825,6.128863999760713,3916500.33900302,282.20168732588326,3187.46145494395,51.73947679803307,1.9546574099075678,0.0011576904052080852
1.3020000000000007,5404.0313031164305,6.1531355415825795,3913691.6335867844,282.1720060143021,3187.3677809280957,51.63141698051005,1.9567109010395116,0.0011933568047894025
1.3420000000000007,5404.456855544642,6.1775393123604845,3910880.0867031603,282.142278826187,3187.1150067732992,51.52340664481924,1.9587625721881612,0.0012289460211847257
1.3820000000000008,5404.959536369021,6.2019470904465726,3908065.6497395253,282.11250518006307,3186.8614059893202,51.415444210389836,1.9608124450409574,0.0012644589084544037
1.4220000000000008,5405.599342590871,6.226330762941322,3905248.2973431125,282.08268473941234,3186.6082518608687,51.30752897393952,1.9628605235659964,0.0012998960765802144
1.4620000000000009,5406.373255928121,6.2507788620294065,3902428.0356537984,282.0528175005383,3186.354485195487,51.19966140892887,1.9649067880045679,0.0013352578128871648
1.502000000000001,5407.284436630091,6.275254269935903,3899604.8559084362,282.02290330172116,3186.1005059890763,51.0918414370577,1.9669512298375522,0.0013705445501068715
1.542000000000001,5408.336630468811,6.299769495838312,3896778.754297913,281.99294203336643,3185.846182847794,50.98406916733847,1.9689938368377853,0.0014057566665519013
1.582000000000001,5409.5331423745565,6.324321098114317,3893949.7254124274,281.96293356859775,3185.5915496828384,50.8763446524368,1.9710345979940933,0.0014408945519611936
1.622000000000001,5410.877639140576,6.348910315456695,3891117.76418992,281.93287778389407,3185.33659280561,50.76866796099769,1.9730735020487749,0.0014759585880525618
1.662000000000001,5412.373829376586,6.3735370849818365,3888282.865370391,281.90277455330204,3185.0813116071754,50.661039157413065,1.9751105379049465,0.001510949154017509
1.702000000000001,5414.025579350273,6.3982016917680085,3885445.023642836,281.87262374999045,3184.825702031259,50.55345830725938,1.9771456945155963,0.0015458666251089372
1.742000000000001,5415.83688380976,6.42290433061662,3882604.233607253,281.8424252458431,3184.569760919646,50.44592547588905,1.979178960910807,0.0015807113730668956
1.7820000000000011,5416.39547983896,6.447645218860742,3879760.4897843767,281.8121789115584,3184.262710013142,50.33844072878925,1.981210326189368,0.001615483766069575
1.8220000000000012,5411.706272320463,6.4724471507359675,3876913.786613458,281.7818846166219,3183.7644883602206,50.23100413149801,1.98323977951931,0.0016501841688020562
1.8620000000000012,5406.961218790034,6.497345236465029,3874064.10849104,281.751542123209,3183.2636177622944,50.12361538505364,1.985267317462585,0.0016848130391419025
1.9020000000000012,5402.248269267866,6.522190052445947,3871211.416474632,281.72115094420025,3182.7641073770264,50.01627334274295,1.9872929536588053,0.001719371055296792
1.9420000000000013,5397.53748434234,6.547109802962885,3868355.718769665,281.69071109404683,3182.263284721806,49.90897858838121,1.9893166670226374,0.0017538584327714813
1.9820000000000013,5392.836680637736,6.572059221890321,3865497.005141688,281.6602223904462,3181.7620465312557,49.801731033925144,1.9913384500358466,0.0017882755619216132
2.022000000000001,5388.144046279445,6.597050871246598,3862635.270482058,281.62968470534105,3181.260149455478,49.69453078176823,1.9933582914191896,0.0018226227794400258
2.062000000000001,5383.459824974682,6.622082175399039,3859770.508380504,281.5990978964234,3180.7576407752067,49.58737788984309,1.9953761808491581,0.001856900430572343
2.102000000000001,5378.783906224998,6.647153869704107,3856902.7125828923,281.5684618226724,3180.254505796593,49.4802724248321,1.9973921078887824,0.0018911088550939697
2.1420000000000012,5374.1162218927575,6.67226609720107,3854031.876717788,281.53777634143324,3179.7507405529914,49.37321445220077,1.9994060621865895,0.0019252483899810005
2.1820000000000013,5369.457016349948,6.6974190752383,3851157.994334539,281.5070413088195,3179.24453210499,49.266204037587684,2.0014180334477425,0.0019593193690833886
2.2220000000000013,5364.805729262717,6.722613418423688,3848281.058901631,281.4762565796914,3178.736766237589,49.15924124674634,2.0034280114342153,0.0019933221231793136
2.2620000000000013,5359.4862366951875,6.747848545745598,3845401.0636347895,281.4454220058104,3178.2044392189086,49.05232613934971,2.005435986087602,0.0020272569816294993
2.3020000000000014,5349.8462692158855,6.773132490869922,3842518.0018728646,281.4145374398581,3177.5175138468658,48.94545878257439,2.0074419472565794,0.002061124268864721
2.3420000000000014,5340.204232653988,6.798497325684281,3839631.8636978846,281.38360269919974,3176.8281697975217,48.83863912950944,2.009445887122484,0.0020949243360516793
2.3820000000000014,5330.626880836363,6.823849747237308,3836742.6230227435,281.35261742727016,3176.139489890182,48.73186655636727,2.0114478094194457,0.002128657681029075
2.4220000000000015,5321.084357900129,6.8492636466705585,3833850.280634183,281.32158155508216,3175.4494391344456,48.625141409997426,2.0134476985589544,0.0021623245460818067
2.4620000000000015,5311.584225635194,6.874715299792452,3830954.8275187197,281.29049490817323,3174.7586420904317,48.51846368779192,2.0154455459791993,0.002195925261572872
2.5020000000000016,5302.124602599115,6.900210345912455,3828056.2569431616,281.2593573361195,3174.0669540326,48.41183347211577,2.017441341476094,0.002229460133019995
2.5420000000000016,5292.705292692631,6.9257481700150105,3825154.561691358,281.2281686828932,3173.3743885233575,48.305250831053264,2.019435075181864,0.002262929466906737
2.5820000000000016,5283.325954237415,6.951329017958962,3822249.734493891,281.1969287914688,3172.680938772491,48.198715833835415,2.0214267372566423,0.0022963335667133167
2.6220000000000017,5273.986216933104,6.976953137958473,3819341.768009323,281.1656375036171,3171.986597398999,48.09222855017143,2.0234163179009603,0.002329672733123701
2.6620000000000017,5264.685733835889,7.002620731130421,3816430.654808256,281.1342946597296,3171.291358362111,47.985789049685806,2.0254038073661054,0.00236294726420343
2.7020000000000017,5255.424155262209,7.02833201674183,3813516.3873802996,281.1029000988887,3170.5952151555884,47.879397402174455,2.027389195948229,0.002396157455365623
2.7420000000000018,5247.129863722132,7.054087209838945,3810598.9581320854,281.07145365884173,3169.8591380093135,47.7730536775414,2.029372473988769,0.0024293035994188473
2.782000000000002,5241.0550793400425,7.079895606583492,3807678.3593874727,281.03995517599844,3169.028754668555,47.66675794581338,2.0313536318733703,0.0024623859865944495
2.822000000000002,5234.968347150392,7.10575996630285,3804754.5796297663,281.0084044448642,3168.196704860298,47.560510144416554,2.033332662658785,0.002495404938452812
2.862000000000002,5228.89028539936,7.131647260113797,3801827.603223902,280.9768012149193,3167.3642741582357,47.45431006938726,2.0353095622371282,0.00252836080989818
2.902000000000002,5222.8136177060105,7.157587086508403,3798897.4249487086,280.94514534753137,3166.5305052380927,47.34815788821107,2.0372843191859755,0.0025612538584371854
2.942000000000002,5216.739771886675,7.183570561746955,3795964.035806012,280.91343666283285,3165.695672588174,47.24205363805941,2.039256924706224,0.002594084372414988
2.982000000000002,5210.668508584335,7.209599639972124,3793027.4274957646,280.881674988018,3164.8597174069714,47.13599738389756,2.0412273694908336,0.0026268526306804903
3.022000000000002,5204.599717409074,7.235674413569693,3790087.5915494417,280.84986014798073,3164.022635421167,47.029989187906665,2.043195644329286,0.002659558910414079
3.062000000000002,5198.533335037981,7.26179505303948,3787144.519398774,280.81799196605186,3163.1844209823735,46.924029111923275,2.045161740058544,0.002692203486533022
3.102000000000002,5192.469274560008,7.287961805636162,3784198.202398921,280.7860702642444,3162.345065883755,46.818117218262365,2.047125647546086,0.0027247866315103183
3.142000000000002,5186.407455870426,7.314174886387543,3781248.6318157455,280.75409486311094,3161.504562945781,46.71225356928264,2.0490873576977675,0.0027573086155122002
3.182000000000002,5180.347780269415,7.340434518076474,3778295.7988287746,280.7220655817705,3160.660508583964,46.60643822750211,2.0510468614548363,0.0027897697063956617
3.222000000000002,5174.240962192501,7.366738475942861,3775339.6945305006,280.6899822378956,3159.746502575573,46.50067125558443,2.053004149793512,0.0028221701697383537
3.2620000000000022,5168.119845894965,7.393083321550171,3772380.3109111274,280.6578446584042,3158.8013066774197,46.39495275055773,2.0549592130520034,0.002854510260270978
3.3020000000000023,5162.001678376871,7.419480440869932,3769417.6421263544,280.62565269326495,3157.8546781880846,46.28928288753328,2.0569120400739545,0.00288679021100133
3.3420000000000023,5155.885406441641,7.445925922470744,3766451.6795588755,280.5934061618555,3156.906723142095,46.1836617481024,2.0588626215798977,0.0029190102763522238
3.3820000000000023,5149.771596181349,7.472418158894653,3763482.414007873,280.56110487669775,3155.957502970669,46.07808939676865,2.060810948661605,0.002951170712903391
3.4220000000000024,5143.660000212909,7.49895825827335,3760509.8365178485,280.528748652461,3155.00697848667,45.97256590970619,2.0627570122168395,0.0029832717722037285
3.4620000000000024,5137.5505664423035,7.525546230316225,3757533.9379578168,280.49633730138277,3154.055148845235,45.86709136017957,2.0647008032349605,0.0030153137044516103
3.5020000000000024,5131.443221643919,7.552182317144146,3754554.709122083,280.4638706343591,3153.102005454176,45.7616658220497,2.066642312727487,0.003047296757640105
3.5420000000000025,5125.337889476035,7.578866742957727,3751572.140718617,280.43134846081267,3152.1475402425053,45.65628936938348,2.0685815317351386,0.0030792211776781444
3.5820000000000025,5119.234496647978,7.605599725122294,3748586.2233668305,280.398770588663,3151.1917454168574,45.55096207639251,2.0705184513284287,0.003111087208428856
3.6220000000000026,5113.132969713648,7.632381484833776,3745596.947598584,280.36613682433193,3150.2346130663905,45.44568401748133,2.072453062606107,0.0031428950917202383
3.6620000000000026,5107.016447562643,7.659212242752491,3742604.3038574937,280.3334469727304,3149.252116389365,45.340455267238426,2.074385356694741,0.003174645067369794
3.7020000000000026,5100.871228916316,7.686086171297438,3739608.2824986214,280.30070083724945,3148.2184544727475,45.23527590044081,2.0763153247480357,0.003206337373205476
3.7420000000000027,5094.735487967143,7.713003916539659,3736608.8761537066,280.26789824562906,3147.1836704795423,45.130146072707575,2.0782429563758575,0.003237972225171205
3.7820000000000027,5088.598310205124,7.73998371782754,3733606.0790806278,280.23503904290885,3146.1469453949894,45.02506599773804,2.0801682400925925,0.003269549823098789
3.8220000000000027,5082.463132523231,7.767009452353297,3730599.8797890902,280.20212301071007,3145.1088953726544,44.92003569624021,2.0820911682019876,0.0033010704126548575
3.8620000000000028,5076.329329182942,7.794085865720706,3727590.2685300075,280.169149949123,3144.0693465292024,44.81505525159889,2.0840117318155573,0.003332534222158133
