time,thrust,OF,ox_tank.pressure,ox_tank.temperature,combustion_chamber.temperature,propellant_mass,propellant_CG,combustion_chamber.fuel_grain.geometry.length_regressed
0.007,250.64974991258111,4.625678198322784,5191853.734002332,294.28603159327696,2819.828794375714,55.77845076274971,1.7805303947043805,1.5901355795795477e-05
0.014,1215.2552916599193,4.368594439756982,5190528.863273513,294.274716852129,2916.556803934056,55.73892910043921,1.7813942426789435,3.1733734168687754e-05
0.021,2529.2458901361038,4.286162850063626,5189283.744112623,294.2640811758549,2935.019198072808,55.70167611729297,1.7822021710331848,4.6911413486747756e-05
0.028,3595.968574233112,4.219672322424374,5188113.300140308,294.2540815691048,2935.3607752863913,55.666551119883586,1.7829579497731742,6.14643941943525e-05
0.035,4427.834824399151,4.165669700034361,5187009.044876369,294.24464584298846,2931.1145669522757,55.633316267184384,1.783667656946558,7.54527093579836e-05
0.042,5091.662235751168,4.123331264252317,5185961.771257823,294.2356955841145,2925.995902414936,55.60171229171704,1.7843378072241554,8.894556439948564e-05
0.049,5593.791123421493,4.091479101379843,5184962.366090969,294.22715311872275,2921.4482058383214,55.5714815655012,1.7849747928943946,0.00010201459568101924
0.056,6001.837021285936,4.068517590078587,5184002.301313313,294.2189457193417,2917.962422135524,55.5423821935133,1.785584554351491,0.00011472929137479492
0.063,6300.958540973486,4.052714196333021,5183073.948496401,294.21100830242085,2915.5693649088826,55.51419718477583,1.7861723752789465,0.00012715364101822263
0.07,6527.749238048135,4.042430115429801,5182170.734954378,294.2032847722933,2914.1219076878965,55.4867391409845,1.7867427870089583,0.00013934407942705287
0.07700000000000001,6698.293576299589,4.036255640806435,5181287.172189826,294.1957282731115,2913.4240667059635,55.45985128118136,1.7872995590479566,0.00015134861214153398
0.08400000000000002,6826.241387058167,4.033102835424432,5180418.795391152,294.18830067913444,2913.2913716476423,55.43340587869661,1.787845748336729,0.00016320685960513615
0.09100000000000003,6921.867437851473,4.032121419581922,5179562.041667733,294.1809715597913,2913.5700925096826,55.40730089468418,1.7883837880867748,0.00017495079391459243
0.09800000000000003,6993.084708969614,4.0326967105808444,5178714.11588928,294.1737170373946,2914.140046579209,55.381456212851376,1.7889155832033685,0.00018660571177417826
0.10500000000000004,7045.9347202940335,4.034387281518124,5177872.852855856,294.1665186122631,2914.922247819037,55.35580973665893,1.7894426067426152,0.0001981913347345693
0.11200000000000004,7085.004760881091,4.036878854330581,5177036.591655789,294.1593620910632,2915.8491495940925,55.33031381393343,1.7899659870409428,0.00020972286353092425
0.11900000000000005,7113.756556194401,4.039948526715116,5176204.067749141,294.1522366659447,2916.8831987748217,55.30493215610178,1.7904865820980862,0.00022121191239054966
0.12600000000000006,7134.7954371586875,4.043437550643349,5175374.323817294,294.1451341535619,2917.994069707118,55.27963728774099,1.7910050407594889,0.00023266729705890505
0.13300000000000006,7150.07593316116,4.047232469740961,5174546.638242823,294.13804838442775,2919.1602364158634,55.25440849757039,1.791521851643578,0.00024409567601226713
0.14000000000000007,7161.061212896398,4.051251661690514,5173720.468829665,294.1309747222867,2920.3664953044217,55.22923022451726,1.7920373815497044,0.0002555020600451082
0.14700000000000008,7168.844890966228,4.055436043279762,5172895.4091753485,294.1239096914646,2921.6020209063154,55.204090805816186,1.7925519051754342,0.00026689021003900435
0.15400000000000008,7174.243410488793,4.059742603747722,5172071.155210635,294.1168506910159,2922.8590445170253,55.178981516485976,1.7930656278736696,0.0002782629435078757
0.1610000000000001,7177.8657617038125,4.064139878362817,5171247.479737565,294.109795777167,2924.1319515382115,55.15389583824749,1.7935787029483359,0.00028962236864637445
0.1680000000000001,7180.165902748078,4.068604754612709,5170424.213165545,294.1027434986938,2925.416659549609,55.12882890635077,1.794091244726159,0.00030097006180559825
0.1750000000000001,7181.482066572026,4.07312019895932,5169601.228998768,294.0956927728851,2926.710185314205,55.10377709283696,1.794603338395432,0.00031230720139226116
0.1820000000000001,7182.066174880954,4.07767362517944,5168778.432937434,294.08864279237946,2928.0103400547905,55.078737693594405,1.7951150473888762,0.0003236346685147925
0.1890000000000001,7182.1058159755285,4.082255714369398,5167955.754712106,294.0815929553563,2929.315512809181,55.05370869391656,1.795626418911121,0.0003349531224263469
0.22900000000000012,7181.740648174675,4.086859556092501,5167133.141976172,294.07454281331485,2930.624515006827,55.02868859317861,1.7961374880702201,0.0003462630569608193
0.26900000000000013,7171.9818692716535,4.094209854479013,5162426.042794714,294.03418429601373,2932.660208790819,54.8857807633611,1.7990542007407375,0.0004107951601555195
0.3090000000000001,7160.47800459877,4.121698591866799,5157715.163835538,293.99376492849166,2940.4179403781386,54.742995121834156,1.801964967068348,0.00047510454765388026
0.3490000000000001,7153.1570394490645,4.1469445854891935,5152999.916063377,293.95327954279884,2947.560054513525,54.600314962285,1.8048701444608115,0.0005391986014287824
0.38900000000000007,7143.578687625446,4.174642020483838,5148282.54067278,293.91274728259003,2955.383861033387,54.4578039458116,1.8077682172268024,0.0006030591408881142
0.42900000000000005,7135.5281682627265,4.200972154862336,5143561.805270486,293.87215746848386,2962.8258763546737,54.31542701313533,1.8106599745666345,0.0006666993736925632
0.46900000000000003,7126.6096026019395,4.228268230720869,5138838.502081159,293.8315168173772,2970.5349635269004,54.17320656523812,1.8135448674497419,0.0007301142390261021
0.509,7118.321331564498,4.2550510297762365,5134112.1379846465,293.79082099394566,2978.099920562942,54.03112859533806,1.8164231947007814,0.0007933101660277116
0.549,7109.722301529144,4.282255467217161,5129383.025188132,293.7500725920873,2985.780530817893,53.88920189097153,1.8192947261929304,0.0008562863553970512
0.5890000000000001,7101.401494163893,4.309291994174944,5124650.969522765,293.7092698452012,2993.413074997251,53.747420945448695,1.8221595640826305,0.0009190464764629773
0.6290000000000001,7093.508335510742,4.33653450804361,5119916.094600501,293.6684137246558,3000.49548229667,53.60578922560643,1.8250176032746577,0.0009815913492146249
0.6690000000000002,7086.50964246175,4.363976143025509,5115178.3238790715,293.6275034756262,3006.22103148788,53.464304570901284,1.82786886945759,0.0010439235258159455
0.7090000000000002,7078.724325356159,4.391798159536842,5110437.457833249,293.5865372780152,3012.018515166605,53.322961397749424,1.8307134673860452,0.001106046584500902
0.7490000000000002,7071.3824524706715,4.419181806321726,5105693.022327114,293.54551093100747,3017.7246703025835,53.181746483646805,1.8335516771337854,0.0011679664227365342
0.7890000000000003,7063.851188456948,4.44690513809618,5100945.248488699,293.5044263268623,3023.4984847902706,53.04066639557206,1.8363833234720208,0.0012296827547841986
0.8290000000000003,7056.49996937675,4.474538845485171,5096193.998405108,293.4632821663078,3029.252473937894,52.89971737746635,1.8392084690878379,0.0012911984694769139
0.8690000000000003,7049.115198067015,4.502335060065253,5091439.349780383,293.4220790154731,3035.0380156563015,52.75890170966466,1.8420270385959496,0.0013525145616983553
0.9090000000000004,7041.818928554426,4.530148765451885,5086681.255636533,293.38081636042534,3040.825144823994,52.61821820082458,1.8448390367116658,0.0014136330719358892
0.9490000000000004,7034.540347998206,4.558065082853286,5081919.740618114,293.33949430749334,3046.63053937489,52.4776676640811,1.8476444227651811,0.001474555398327475
0.9890000000000004,7027.319148673835,4.586036117284603,5077154.787980955,293.2981126036916,3052.4455367770306,52.33724976893499,1.8504431827082486,0.00153528326554512
1.0290000000000004,7020.129868800036,4.614091766575755,5072386.404448305,293.2566711992828,3058.276209961317,52.19696484487248,1.8532352879031841,0.0015958181718994677
1.0690000000000004,7014.7709120624895,4.642215395443541,5067614.581913932,293.2151699153174,3063.359318808771,52.05681281783714,1.856020719361711,0.0016561617153440973
1.1090000000000004,7011.549902199244,4.670647124542538,5062839.320424756,293.17360864326645,3067.4478789756527,51.91679384731594,1.858799453225623,0.0017163153994282938
1.1490000000000005,7008.071453734363,4.699205481329234,5058060.379978954,293.13198518271093,3071.549811258897,51.77690148666916,1.861571615510849,0.0017762827027055015
1.1890000000000005,7004.806225294928,4.7276191683606905,5053277.550065755,293.0902975839261,3075.630126857814,51.63713014831787,1.8643373123073887,0.0018360668038733844
1.2290000000000005,7001.568209494386,4.756223359749949,5048490.917411306,293.0485464850278,3079.735607551521,51.497482450557165,1.8670964642636227,0.0018956683744752682
1.2690000000000006,6998.461162928708,4.784849265265477,5043700.426670784,293.0067312853722,3083.8428063230026,51.35795710761193,1.869849080667656,0.0019550892446006545
1.3090000000000006,6995.43115448113,4.813589647118236,5038906.099355387,292.9648520540968,3087.9646147046033,51.2185549536553,1.872595123341001,0.0020143305849140334
1.3490000000000006,6992.507927850071,4.842395935633156,5034107.915592772,292.9229084985924,3092.094294733028,51.07927569408106,1.8753345799077428,0.0020733938855102877
1.3890000000000007,6989.676875519571,4.871295469400068,5029305.877324217,292.8809005162265,3096.2356443252747,50.94011963900482,1.8780674247460916,0.002132280435427591
1.4290000000000007,6986.946947723652,4.900274863937933,5024499.974555016,292.83882789947444,3100.386812137296,50.801086778770795,1.880793639764092,0.002190991600211755
1.4690000000000007,6984.314698617146,4.929342551621902,5019690.203357983,292.7966904933162,3104.5489712314434,50.66217727617132,1.8835132033413235,0.0022495286750641805
1.5090000000000008,6972.809341138085,4.958495298614647,5014876.556292543,292.75448811139995,3107.3878273832524,50.52339120474312,1.8862260961841888,0.0023078929633266886
1.5490000000000008,6958.205301459638,4.98893152537319,5010059.027504335,292.71222058068474,3110.174480306795,50.38472868768183,1.888932298208854,0.002366085735479165
1.5890000000000009,6944.468743162103,5.018300827642126,5005236.452222813,292.66987754831825,3112.864319550694,50.24615847382662,1.8916324865976715,0.0024241174997715275
1.629000000000001,6930.498429739677,5.0481726349299985,5000409.175838538,292.62746190492993,3115.596130240554,50.10769034448653,1.8943264241897653,0.0024819865875068087
1.669000000000001,6916.74690795562,5.077969426242935,4995577.034184697,292.58497206733,3118.3191115130917,49.96932027291339,1.8970141812423336,0.002539695394528097
1.709000000000001,6903.021806007295,5.107939066239411,4990740.079636237,292.54240835374236,3121.056159778749,49.831050101061805,1.8996956979526292,0.0025972445701145114
1.749000000000001,6889.403321307747,5.137977260040376,4985898.272528966,292.49977027241954,3123.798101924072,49.692879190436315,1.9023709697655091,0.002654635477755528
1.789000000000001,6875.856666389048,5.168129696117398,4981051.611984819,292.45705767199246,3126.5489550974553,49.55480795600876,1.9050399690604114,0.0027118691562962047
1.829000000000001,6862.395215864154,5.198378448554766,4976200.080499301,292.41427025385195,3129.307142961499,49.41683637166869,1.9077026782047795,0.0027689467587551806
1.869000000000001,6849.012284680685,5.228732397232145,4971343.667209209,292.371407777034,3132.073444801525,49.278964596695424,1.9103590757118412,0.0028258693691819528
1.9090000000000011,6844.557953682739,5.2591891780601,4966482.35816299,292.328469972464,3133.8991107535862,49.14119271413255,1.9130091420011097,0.0028826380793690173
1.9490000000000012,6841.851398385877,5.2900421182176816,4961616.140378198,292.28545657872814,3135.526311306561,49.00352083963928,1.915652856995627,0.0029392539573849007
1.9890000000000012,6839.303220706479,5.32075994843562,4956744.731663163,292.24236495125166,3137.145441011379,48.86594192265598,1.9182903573092487,0.0029957201267231826
2.0290000000000012,6836.881075923927,5.351637289102841,4951868.162748588,292.1991952085714,3138.7719236849607,48.728457289736355,1.9209215960694919,0.003052037265888904
2.0690000000000013,6834.608803205712,5.382605869976011,4946986.4024230195,292.15594692050473,3140.4023398926092,48.59106662120472,1.923546562605193,0.003108206516465654
2.1090000000000013,6832.481335034599,5.413692202135691,4942099.441588688,292.1126198515849,3142.0380109318394,48.45377019312919,1.9261652334290018,0.0031642288349981143
2.1490000000000014,6830.504533587235,5.444887705382091,4937207.262546211,292.0692136891687,3143.678507334211,48.31656805940527,1.928777590078689,0.0032201052292514304
2.1890000000000014,6828.680420032006,5.476196984838336,4932309.850492305,292.0257281452727,3145.32405718688,48.17946035738193,1.931383612453598,0.003275836670425989
2.2290000000000014,6827.0125777872745,5.507619723983001,4927407.189234841,291.98216291857403,3146.974643047526,48.042447194104724,1.9339832812820508,0.0033314241260729164
2.2690000000000015,6824.878008174976,5.539157445573051,4922499.262783928,291.9385177085125,3148.550684557926,47.90552868844825,1.9365765772008572,0.0033868685482279226
2.3090000000000015,6816.306125449492,5.570857863167564,4917586.054766349,291.89479221007815,3149.33624100513,47.76870495559827,1.9391634810856633,0.0034421708780659113
2.3490000000000015,6807.115588476522,5.603093192771776,4912667.507179957,291.8509857463027,3150.127883228983,47.63197502439112,1.9417439973045174,0.0034973323531079514
2.3890000000000016,6798.168433694841,5.63498973379575,4907743.2078470355,291.8070944799744,3150.9118814828016,47.49532865602775,1.944318328943241,0.003552356819785324
2.4290000000000016,6789.175757426197,5.667168572382548,4902813.280220026,291.7631193416476,3151.702061185218,47.358769700551484,1.9468863760184523,0.0036072441105840774
2.4690000000000016,6780.22588174773,5.699421284849622,4897877.659821468,291.7190595863202,3152.4936771382154,47.22229708142978,1.9494481445249685,0.0036619954443002653
2.5090000000000017,6771.291864261976,5.731813705330817,4892936.340140829,291.67491498461686,3153.2882321326697,47.085911248196204,1.9520036078491283,0.0037166115969937534
2.5490000000000017,6762.38129285136,5.7643274254571795,4887989.296853688,291.6306851469817,3154.085302119913,46.94961219111694,1.9545527493253676,0.003771093463903791
2.5890000000000017,6753.491535918032,5.796969400107531,4883036.510611202,291.5863697270464,3154.8850441430686,46.81340003723942,1.9570955494761895,0.0038254418913060964
2.629000000000002,6744.622964819163,5.829739048672518,4878077.960269578,291.54196836114437,3155.687442310824,46.6772748736074,1.9596319897830916,0.0038796577265137956
2.669000000000002,6729.635045628337,5.862638021428599,4873113.624881723,291.49748068609614,3156.015574671679,46.541236799179025,1.9621620515746532,0.003933741803442719
2.709000000000002,6712.181721219572,5.895927568448508,4868143.483116995,291.4529063340024,3156.171780645374,46.40528590972927,1.9646857163428544,0.0039876949470170776
2.749000000000002,6694.917487819995,5.929182357009017,4863167.293306793,291.40824295727066,3156.326999302462,46.26941662166352,1.9672030854129192,0.004041519552285816
2.789000000000002,6677.827249642191,5.962559078560953,4858185.028709678,291.36349013213857,3156.482876517362,46.13362893430104,1.9697141417925608,0.004095216442705188
2.829000000000002,6660.889204214565,5.996079775252726,4853196.674412757,291.3186475397263,3156.6389658057906,45.997923158844266,1.9722188620005094,0.004148786345819867
2.869000000000002,6644.1085989506355,6.0297344718439385,4848202.205785747,291.27371477253047,3156.793102976199,45.86229936255465,1.9747172277762328,0.004202230047975933
2.909000000000002,6627.482348981073,6.063526971754303,4843201.6009844635,291.2286914466933,3156.947869905823,45.726757691315335,1.977209219277497,0.004255548304769896
2.949000000000002,6611.0050160977025,6.097460633096554,4838194.837769992,291.18357717342,3157.103247135446,45.59129828758983,1.9796948168048891,0.004308741864005163
2.989000000000002,6594.675969567592,6.131534478437158,4833181.891787823,291.1383715434318,3157.259231464481,45.45592124652201,1.9821740017114633,0.004361811477899815
3.029000000000002,6582.046253442898,6.165750426983519,4828162.739014846,291.093074148974,3157.0605885278906,45.320626678752255,1.9846467550822404,0.004414757885854142
3.069000000000002,6570.469865169689,6.200283083613312,4823137.355008906,291.0476845770382,3156.7325025993114,45.18541469120767,1.9871130581317442,0.004467581819890255
3.109000000000002,6558.910300426297,6.234853485809922,4818105.573965675,291.0022011348138,3156.4037941601455,45.05028180680044,1.9895729663586863,0.004520284984453896
3.1490000000000022,6547.383362160506,6.269559011729581,4813067.364396174,290.9566233394765,3156.0742067664623,44.91522798684501,1.992026463630824,0.004572868129609905
3.1890000000000023,6535.875780059186,6.3044202245553365,4808022.706220614,290.91095080980864,3155.7434526275433,44.78025348969206,1.9944735277001793,0.004625331916208231
3.2290000000000023,6524.390774996199,6.339429517559021,4802971.571313618,290.86518309025394,3155.4116101544428,44.64535837655025,1.9969141404349304,0.0046776770512360535
3.2690000000000023,6512.927431018343,6.374590372347117,4797913.9332771115,290.8193197392733,3155.0786460319537,44.51054275976499,1.9993482826730329,0.0047299042200009914
3.3090000000000024,6501.485583658727,6.409903761545731,4792849.765047218,290.77336030767015,3154.744549613875,44.375806742149116,2.0017759354728044,0.00478201410282803
3.3490000000000024,6491.152051382823,6.4453710920108715,4787779.03931747,290.72730434240117,3154.3796779871955,44.2411504277404,2.004197079886791,0.004834007372239718
3.3890000000000025,6493.06733647784,6.481005985376577,4782701.728483479,290.6811513860536,3153.6848633398854,44.106573920442116,2.006611696985805,0.0048858846934400225
3.4290000000000025,6495.296205000331,6.516922234016336,4777617.795011389,290.6349008891663,3152.9811232869374,43.97207708288869,2.0090197727681867,0.0049376467894891194
3.4690000000000025,6497.979566677505,6.552871598725642,4772527.106746203,290.5885514384433,3152.2764887896087,43.837657421845506,2.011421341099851,0.004989295010445551
3.5090000000000026,6501.139602124963,6.589014084117414,4767429.664153223,290.5421028247364,3151.568685608506,43.70754394554844,2.0139360693552995,0.005040829797687409
3.5490000000000026,6498.600077645147,6.604843191363864,4762325.432101607,290.49555451324966,3151.20087460446,43.57859910352474,2.016475393285465,0.005092272987178394
3.5890000000000026,6495.378197343504,6.61583218262735,4757215.619500785,290.4489173261979,3150.924079748094,43.44974288576354,2.019007256097811,0.005143622206682855
3.6290000000000027,6492.38387432997,6.627495319768621,4752100.939189594,290.40219758779523,3150.635752802971,43.32099331671705,2.021531267534337,0.0051948728962250695
3.6690000000000027,6489.390592342598,6.6391026730558576,4746981.315064538,290.3553944274311,3150.347988642458,43.19234929820775,2.0240474516570037,0.00524602578013851
3.7090000000000027,6486.429616129225,6.650666074301961,4741856.709869474,290.30850732710076,3150.0609834745,43.06381067844228,2.026555811919547,0.0052970813176348745
3.7490000000000028,6483.500508298987,6.662208061292567,4736727.10310856,290.26153592051503,3149.7742519377744,42.93537771372838,2.02905634290959,0.005348039852220196
3.789000000000003,6480.602412479845,6.673721911079159,4731592.468031308,290.214479782715,3149.487921437493,42.8070505135442,2.0315490422926534,0.005398901764632086
3.829000000000003,6477.735752423869,6.685208766179286,4726452.778897978,290.1673384964932,3149.2019709611254,42.67882921564059,2.0340339070465023,0.005449667424655127
