time,thrust,OF,ox_tank.pressure,ox_tank.temperature,combustion_chamber.temperature,propellant_mass,propellant_CG,combustion_chamber.fuel_grain.geometry.length_regressed
0.007,240.59311321603622,4.397239280353945,4233697.981441706,285.45630364532747,2925.174496181717,57.31334021424588,1.8692777217840064,1.4306681362112597e-05
0.014,1100.8384748877393,4.092138517972967,4232799.885316083,285.4473497715766,2990.6750170420137,57.27748345018432,1.8699395954122335,2.8537500618195364e-05
0.021,2322.3325801439855,4.010701019933028,4231968.91251102,285.43906384058846,2999.9516528977215,57.244198524511106,1.8705487746800253,4.197008213696541e-05
0.028,3306.5235345873034,3.9472121224089793,4231200.523317097,285.43140087033794,2992.45286756757,57.2133164960289,1.8711090375502883,5.4644228654517914e-05
0.035,4063.3794331526956,3.8983892806073586,4230487.316694438,285.42428729169416,2983.2521903742577,57.184558359768644,1.8716263406695435,6.66364490827077e-05
0.042,4615.793988301928,3.863208617069118,4229821.114612696,285.4176417296133,2975.5602166357094,57.157613964391096,1.8721071811175738,7.803670800131877e-05
0.049,5048.756747289567,3.8398524463600583,4229193.766012442,285.41138302663217,2970.291336123631,57.1321726601881,1.872557973216549,8.893887454908005e-05
0.056,5372.079989849075,3.8258946250804753,4228597.682243467,285.40543559178826,2967.3580508166847,57.107944018843455,1.8729846433784643,9.943358568511761e-05
0.063,5611.431865324182,3.8187846695005336,4228026.170427129,285.3997327350753,2966.247096893195,57.08467099242459,1.8733923861097543,0.00010960315253086251
0.07,5793.297187040224,3.816277478868368,4227473.5871223025,285.39421820907415,2966.385859800031,57.06213621508619,1.873785559435769,0.0001195186084533573
0.07700000000000001,5924.126821178138,3.8166219605453695,4226935.346346475,285.38884629650795,2967.2730897132324,57.04016264951897,1.874167690520535,0.00012923872886699882
0.08400000000000002,6017.057776644973,3.8186833552571056,4226407.833693991,285.3835809595154,2968.586086302521,57.01861052290744,1.8745415504104381,0.0001388104801730815
0.09100000000000003,6085.052205143666,3.8216848548590256,4225888.258256365,285.3783943668377,2970.0945192941444,56.99737176915991,1.8749092733979456,0.00014827050640932798
0.09800000000000003,6134.235442082821,3.82514567982455,4225374.504762339,285.373265421935,2971.669770826862,56.97636440824495,1.875272473890571,0.000157646793927213
0.10500000000000004,6169.713032346963,3.8288340661999483,4224864.995109604,285.368178383798,2973.2502379544,56.95552724032558,1.8756323544535736,0.00016696033812137689
0.11200000000000004,6195.234967208349,3.832617433739164,4224358.561606434,285.36312160378185,2974.809845365347,56.93481496323611,1.8759898038028664,0.0001762267360664031
0.11900000000000005,6213.542213811277,3.8364302785512674,4223854.346587504,285.35808652505256,2976.3410154257035,56.914194294789986,1.8763454740399697,0.00018545747605926716
0.12600000000000006,6226.630345565677,3.840242907201802,4223351.723490111,285.3530668957799,2977.8434181380494,56.89364091805319,1.8766998411534044,0.00019466096751003415
0.13300000000000006,6235.947847087989,3.8440438641529333,4222850.236383517,285.3480581661956,2979.3206242514175,56.873137137805145,1.8770532512527494,0.0002038433384026282
0.14000000000000007,6242.543819216209,3.8478303566022927,4222349.554448593,285.34305703465634,2980.7773058634048,56.8526701149212,1.8774059553050257,0.0002130090399091801
0.14700000000000008,6247.176894265564,3.8516033349878187,4221849.438145108,285.3380611102162,2982.217972417385,56.83223055340334,1.8777581349149295,0.00022216129794927033
0.15400000000000008,6250.395025600358,3.8553650712677165,4221349.714288874,285.3330686640331,2983.646488328613,56.81181173289568,1.8781099212946895,0.00023130244691065065
0.1610000000000001,6252.593663576935,3.859118045247245,4220850.257808953,285.3280784473865,2985.0659667587474,56.7914088004132,1.878461409137299,0.00024043417444146703
0.1680000000000001,6254.058026497976,3.862864488486538,4220350.978455091,285.32308955906313,2986.4788257878427,56.771018254248645,1.8788126667180467,0.0002495577000528911
0.1750000000000001,6254.993738156214,3.8666062426636567,4219851.811143754,285.31810134903446,2987.886900722209,56.750637569168646,1.8791637432266337,0.0002586739049310047
0.1820000000000001,6255.548993445278,3.870344757338403,4219352.708963095,285.31311334865654,2989.2915634833375,56.73026492487109,1.879514674077185,0.00026778342602792757
0.22200000000000011,6255.830573765085,3.874081141197474,4218853.638113099,285.30812522017595,2990.693829085606,56.70989900959266,1.879865484747561,0.0002768867241274116
0.2620000000000001,6249.44031160967,3.881486575968041,4215997.930002546,285.27957441257274,2993.4321218683513,56.59357311619905,1.8818691067024413,0.00032883136546038106
0.3020000000000001,6245.6540385006365,3.9026279685975993,4213139.2252471205,285.25097915752474,3001.3329651413264,56.47731175408772,1.8838718124524434,0.00038062725716406026
0.3420000000000001,6243.937229134511,3.922766206963061,4210277.9972686125,285.22234413243376,3008.868965852681,56.361132955213215,1.8858732229917567,0.00043226937381531246
0.38200000000000006,6241.031171965334,3.945086274991517,4207415.3552066805,285.19368039125305,3017.2139104589914,56.24507904102682,1.8878724863135348,0.0004837444261928857
0.42200000000000004,6239.277688283701,3.9657408301687886,4204550.544265656,285.1649803325099,3024.9407345249306,56.129120692659015,1.889870148090858,0.0005350636875133105
0.462,6236.626233221505,3.9879074792592286,4201684.248364456,285.13625076347114,3033.226963956733,56.01328380140113,1.8918656778411413,0.0005862195259084711
0.502,6234.822203402546,4.008836294708829,4198815.901076056,285.1074859631647,3041.0537385839166,55.89754635783082,1.893859479287866,0.0006372206439996168
0.542,6231.531342709412,4.030895454418484,4195946.005094251,285.07869092864695,3048.914434354519,55.7819272635343,1.8958511591605076,0.0006880617950009126
0.5820000000000001,6225.636944105401,4.0522082020487495,4193074.14533763,285.04986145163406,3055.115226403249,55.66641036430967,1.8978410076453405,0.0007387496280507106
0.6220000000000001,6218.451362545675,4.074727611707378,4190200.57715585,285.02100005056775,3061.6589051451056,55.55100510244041,1.899828816603574,0.000789282091198786
0.6620000000000001,6212.295555364483,4.095939491799623,4187324.6600346477,284.99210024427686,3067.8254400817573,55.435686852701224,1.9018150415630812,0.0008396686142015626
0.7020000000000002,6205.367888338838,4.118233807903108,4184446.8774631666,284.96316684195244,3074.3017983931745,55.32047376017177,1.9037993055866331,0.000889904171546094
0.7420000000000002,6199.114457351384,4.139723020738082,4181566.8514633323,284.9341959947219,3080.5458606156003,55.20535125287688,1.9057818689311448,0.0009399947428390154
0.7820000000000003,6192.377976553136,4.161930767740745,4178684.897862193,284.9051908302962,3086.9951096989516,55.09033108156295,1.9077624799239699,0.0009899374474441798
0.8220000000000003,6186.084089121956,4.183631222765043,4175800.7765584444,284.87614888338874,3093.2977082742937,54.975403946717435,1.9097412967416727,0.001039736449764217
0.8620000000000003,6179.491166894312,4.2058122904209965,4172914.692862306,284.84707217218477,3099.73711741357,54.860577400458084,1.9117181501213125,0.0010893902622811052
0.9020000000000004,6173.192414752809,4.227678839389936,4170026.49471273,284.8179591157788,3106.085276527707,54.74584550417633,1.9136931334103564,0.0011389018883730098
0.9420000000000004,6166.71212561751,4.249872163667667,4167136.316403041,284.7888110186606,3112.5260692618167,54.631213123616504,1.9156661302491507,0.0011882707190244077
0.9820000000000004,6160.430788441742,4.271876087145124,4164244.0622781175,284.7596268671118,3118.911547094152,54.51667647098331,1.9176371927197762,0.0012374990091856663
1.0220000000000005,6154.042927268496,4.294107350118396,4161349.820950896,284.7304075060785,3125.3602920584162,54.40223869271386,1.9196062384982113,0.001286586701065941
1.0620000000000005,6147.792556413233,4.3162307445275045,4158453.532906116,284.70115228561366,3131.7767819313794,54.28789737871283,1.9215732934413305,0.0013355355639096222
1.1020000000000005,6143.619514686535,4.338517066961029,4155555.257202485,284.67186175303385,3137.452941149439,54.17365456980973,1.9235382972857198,0.0013843458846534166
1.1420000000000006,6141.651295453428,4.361116482948597,4152654.9575041793,284.6425354919403,3142.266053745088,54.05950874049477,1.9255012592442653,0.0014330191139580151
1.1820000000000006,6139.448422167746,4.383757134063112,4149752.428579133,284.61317137591374,3147.08402895596,53.945452085612104,1.9274623104642492,0.0014815587425938868
1.2220000000000006,6137.418572599256,4.406144381686487,4146847.524646396,284.58376787598337,3151.84763253326,53.83147906278036,1.9294215382867699,0.0015299674892094329
1.2620000000000007,6135.346040015382,4.428778775449278,4143940.3391081286,284.5543258828607,3156.6618052915314,53.7175930543044,1.931378857293501,0.0015782451362346599
1.3020000000000007,6133.396273090318,4.451310115177658,4141030.809341207,284.5248447077287,3161.453308210729,53.60379163918982,1.9333342947560037,0.0016263933528504193
1.3420000000000007,6131.448568132005,4.474000717909101,4138118.9895137134,284.4953248446225,3166.2769953234106,53.490076742651254,1.9352877940033282,0.0016744123796757627
1.3820000000000008,6129.592104164998,4.496656676549543,4135204.847371051,284.4657659117414,3171.0923412530724,53.37644708663365,1.9372393606193028,0.0017223034901482684
1.4220000000000008,6127.761908128138,4.519422478353329,4132288.4143086243,284.4361681725749,3175.9295359133143,53.26290375686468,1.9391889546707288,0.0017700671794842523
1.4620000000000009,6126.006164182237,4.542191674853568,4129369.6745252027,284.40653141177387,3180.7663516856937,53.14944609675855,1.941136570157482,0.0018177044980469867
1.502000000000001,6124.290088174508,4.565043781922665,4126448.646847161,284.3768557653851,3185.6193906770445,53.036074733931876,1.9430821764685848,0.0018652160708161896
1.542000000000001,6122.639731949626,4.587920579925008,4123525.32436731,284.3471411080652,3190.4765069771106,52.92278935068742,1.945025761484277,0.0019126028185488583
1.582000000000001,6121.036612138919,4.610865806735636,4120599.718953275,284.31738750516234,3195.3468263994973,52.80959032549894,1.9469672998488494,0.0019598654281568614
1.622000000000001,6119.055502680144,4.633847769381841,4117671.828451527,284.28759487941863,3199.9894183581514,52.696477525131634,1.9489067763002073,0.0020070047419310077
1.662000000000001,6114.549410972121,4.657016878899681,4114741.6608452396,284.2577632566052,3203.3719900133683,52.58345119298777,1.9508441685130493,0.0020540214721116445
1.702000000000001,6109.3660737079235,4.6807565759493,4111809.1367822066,284.2278917726546,3206.8302013318903,52.470508381938544,1.9527795158690087,0.0021009173403161805
1.742000000000001,6104.6041953707245,4.703725559523859,4108873.873308791,284.1979764665866,3210.17741552373,52.35763508050556,1.9547130710058205,0.0021476975751079665
1.7820000000000011,6099.591796249773,4.72728005404015,4105936.1087064524,284.16801970543366,3213.60700426305,52.24484001472061,1.9566446483906565,0.0021943601353264725
1.8220000000000012,6094.778441045984,4.750534463949912,4102995.6865104837,284.13801983273606,3216.9929082789436,52.13211749223254,1.9585743405073568,0.002240907566546557
1.8620000000000012,6089.86538742041,4.7740826774991225,4100052.714105957,284.1079778825533,3220.4196359909233,52.019471450813015,1.9605020545420995,0.002287339343172929
1.9020000000000012,6085.050457215431,4.797528919859544,4097107.123174675,284.07789309608944,3223.830896243476,51.90689943129681,1.9624278210064134,0.0023336569624967467
1.9420000000000013,6080.202366655078,4.821137712932011,4094158.961964692,284.04776590438325,3227.264297059186,51.79440321879625,1.9643515889198884,0.002379860569147704
1.9820000000000013,6075.407632785884,4.844733655906634,4091208.2012133077,284.0175959466357,3230.6949129941754,51.68198178677257,1.9662733615478296,0.0024259511892950514
2.022000000000001,6070.608853069768,4.86843401510589,4088254.862833379,283.9873833848917,3234.1394022182853,51.56963596872279,1.9681931065699458,0.0024719292543894525
2.062000000000001,6065.843626378481,4.892161641791359,4085298.934713312,283.95712803314996,3237.58651610151,51.457365369607544,1.9701108154352998,0.002517795575520495
2.102000000000001,6061.087290853773,4.915968152272548,4082340.427047661,283.9268299334619,3241.042338971635,51.34517040484325,1.9720264641930485,0.0025635507015654706
2.1420000000000012,6054.964666309008,4.939819178610231,4079379.3352698707,283.89648897663346,3244.1111101363435,51.233050960454044,1.9739400392131723,0.0026091953403715486
2.1820000000000013,6045.527065210961,4.963987515671902,4076415.6649940135,283.8661051575903,3246.3494457285738,51.121007293138334,1.9758515199133655,0.002654730076571981
2.2220000000000013,6035.673904668128,4.988431834296266,4073449.2661117436,283.8356768734224,3248.607526988811,51.00903407481692,1.977760992805079,0.0027001572271220194
2.2620000000000013,6026.185144663256,5.012423592324714,4070479.9010777157,283.8052016200606,3250.824264274895,50.897122880097605,1.9796686035942817,0.0027454800524097517
2.3020000000000014,6016.561977862407,5.036777161339827,4067507.7032503923,283.77468069770805,3253.0726571786226,50.78527860646707,1.9815742429587087,0.0027906976535691133
2.3420000000000014,6007.094056046306,5.061020389481087,4064532.5933127017,283.7441132236361,3255.3104370102615,50.67349852956504,1.983477947611234,0.002835811496514024
2.3820000000000014,5997.612281221822,5.08543103826196,4061554.6162742116,283.71349959156123,3257.562459793825,50.56178437998787,1.985379669172393,0.002880821657342361
2.4220000000000015,5988.21417165936,5.1098473207291395,4058573.744438181,283.6828394479702,3259.8142518304185,50.450135292710556,1.9872794090262411,0.002925729010500262
2.4620000000000015,5978.842713564841,5.134364362930067,4055589.9922565822,283.65213287240147,3262.074318580156,50.33855191096644,1.9891771398663671,0.002970533957571461
2.5020000000000016,5969.530240597062,5.158927518856035,4052603.3495526463,283.62137969084233,3264.337774318095,50.22703400368516,1.9910728512136802,0.003015237164118211
2.5420000000000016,5960.257572209723,5.183569234097659,4049613.8202478257,283.590579874129,3266.6075172252504,50.115581845171114,1.9929665230699167,0.003059839133897084
2.5820000000000016,5951.035163683463,5.208271445683571,4046621.3999621025,283.5597333073797,3268.881932801532,50.00419541823222,1.9948581411223245,0.003104340454484808
2.6220000000000017,5941.8564757593185,5.233045312410651,4043626.088938769,283.52883992310035,3271.1620163122843,49.892874873268454,1.996747687985745,0.0031487416561547387
2.6620000000000017,5940.315113933122,5.257885134664564,4040627.8846076466,283.4978996245489,3272.530224686832,49.78162026447212,1.9986351482286242,0.003193043292959362
2.7020000000000017,5938.753130841017,5.283428350886026,4037626.7858550684,283.4669123297553,3273.8776806606156,49.67043170103725,2.0005205054905053,0.003237245896465342
2.7420000000000018,5937.417592209356,5.30828223669067,4034622.4296991494,283.43587421700073,3275.189576807781,49.55929655825535,2.0024039854687903,0.0032813538674758983
2.782000000000002,5936.089174747624,5.3335776236335555,4031614.9827420036,283.40478693172696,3276.5233957432433,49.4482209032492,2.004285458448976,0.003325365896681984
2.822000000000002,5934.8812469445475,5.358759850562152,4028604.3567829547,283.37364948693113,3277.8510369169217,49.33720182922099,2.006164965394824,0.003369283403386846
2.862000000000002,5933.740167692458,5.384109053055184,4025590.59143302,283.34246221634413,3279.186686239029,49.22624092944735,2.008042461893063,0.0034131064331931753
2.902000000000002,5932.694370965799,5.409485241329403,4022573.662070311,283.31122478911726,3280.5232537267902,49.115337544331496,2.00991794640017,0.003456835710581385
2.942000000000002,5931.732272984004,5.434959237101956,4019553.5759968865,283.2799372044137,3281.8643233929306,49.004492137577515,2.0117913961626983,0.003500471614573207
2.982000000000002,5930.861813549782,5.460496483125292,4016530.3244733308,283.24859929499996,3283.2081444347405,48.89370461455207,2.0136627991113705,0.0035440146881789325
3.022000000000002,5930.081683859482,5.486114904473785,4013503.9065557607,283.2172109740724,3284.554236960298,48.78297515673642,2.015532138042334,0.0035874653861331213
3.062000000000002,5929.392917498935,5.511809202449502,4010474.3172956225,283.1857721129943,3285.9026755625173,48.672303809239885,2.0173993984288434,0.00363082419948402
3.102000000000002,5928.551568927702,5.5375805296141865,4007441.5520112487,283.15428258554243,3287.220402995326,48.56169063015187,2.019264565589981,0.003674091610556926
3.142000000000002,5922.776197502157,5.563451422707964,4004405.6058420176,283.12274226327975,3287.8514270455976,48.451135674974786,2.021127624983512,0.003717268097710168
3.182000000000002,5916.564270065673,5.5898589979508975,4001366.461722532,283.09115089050704,3288.490007042193,48.340638580257405,2.022988570056854,0.0037603542597612837
3.222000000000002,5910.568709426156,5.6157669906268515,3998323.85564,283.05950564172235,3289.1172600179725,48.23019045135692,2.024847555110776,0.0038033532341409182
3.2620000000000022,5904.497527160043,5.642025534479518,3995277.9086887026,283.0278076937343,3289.7523364077592,48.11979574487035,2.0267044825972094,0.003846264161262165
3.3020000000000023,5898.474623976549,5.668249367570036,3992228.5615834994,282.9960563472085,3290.3864392243086,48.009452677466726,2.0285593727192395,0.0038890880405014197
3.3420000000000023,5892.447788975833,5.694603880745043,3989175.8321462995,282.9642517047041,3291.0233513066914,47.899162134272544,2.0304121954730263,0.003931825071462313
3.3820000000000023,5886.438647753965,5.721020098198036,3986119.705554421,282.93239352853846,3291.6614918249684,47.78892387737032,2.032262942080585,0.003974475783812057
3.4220000000000024,5880.438061009086,5.747527709951066,3983060.1804915383,282.90048172132225,3292.3015395907155,47.6787381377417,2.0341115950162254,0.004017040563744618
3.4620000000000024,5874.449639480671,5.7741151341603025,3979997.2498691687,282.8685161251063,3292.9432276485127,47.56860495126692,2.0359581404974016,0.004059519851250167
3.5020000000000024,5868.471742009727,5.800787962982075,3976930.9088349,282.83649660485526,3293.586682788531,47.458524434130744,2.037802563305497,0.004101914058501459
3.5420000000000025,5862.50488162198,5.827544688230422,3973861.1514645414,282.8044230139416,3294.2318689010967,47.34849666923492,2.03964484891824,0.0041442236035343395
3.5820000000000025,5852.078394965513,5.854386727618618,3970787.9721212555,282.772295208324,3294.559778540658,47.238521752797226,2.0414849826334285,0.004186448896525179
3.6220000000000026,5838.496510013613,5.8815192813329915,3967711.364900528,282.740113040747,3294.670587431496,47.12859977535132,2.043322949923899,0.004228590345448553
3.6620000000000026,5825.0361633937155,5.908637066372566,3964631.2162934537,282.70787523698635,3294.780211204177,47.01872717260894,2.0451588046520186,0.004270649425251853
3.7020000000000026,5811.753591115145,5.9357809337550895,3961547.494940865,282.67558138033723,3294.890066907077,46.90890319476125,2.046992547960806,0.004312626777051619
3.7420000000000027,5798.589103133332,5.96304568068883,3958460.2084636684,282.6432314616092,3295.000358265494,46.799128421870144,2.0488241561842995,0.004354522648336637
3.7820000000000027,5785.564389408144,5.990388006072647,3955369.343843487,282.61082525504565,3295.1109434958294,46.68940273610286,2.0506536187608053,0.004396337487390161
3.8220000000000027,5772.6691576998865,6.017824854494004,3952274.8957528486,282.5783626149811,3295.2218808962466,46.57972628433119,2.0524809202422585,0.004438071661470067
3.8620000000000028,5759.904442465536,6.04535111702512,3949176.855998601,282.54584336523135,3295.333150981903,46.47009911995879,2.054306046981625,0.004479725561580908
