time,thrust,OF,ox_tank.pressure,ox_tank.temperature,combustion_chamber.temperature,propellant_mass,propellant_CG,combustion_chamber.fuel_grain.geometry.length_regressed
0.007,229.9513626910839,6.744119517280637,3517760.7467410113,277.8201232893437,2817.552757635661,55.476029478213135,1.9694812117097262,8.011492782041408e-06
0.014,747.6672538218675,6.281897017418025,3517103.336607397,277.8126030309297,2968.2410363826307,55.445536137845515,1.9700819180289872,1.5993266539696714e-05
0.021,1706.493088356495,6.048435824666933,3516493.32454016,277.805624042087,3019.9073965078464,55.41712544378727,1.9706361579849607,2.3678224682328114e-05
0.028,2474.87617240783,5.847534886256984,3515927.9004393043,277.7991543751712,3046.966438653339,55.3906773428683,1.9711468391318292,3.107360526831051e-05
0.035,3078.7996703633407,5.677198393613798,3515401.927896108,277.79313542998335,3060.8431492969376,55.36596941961968,1.9716190999017504,3.8203207718048904e-05
0.042,3545.055803310372,5.537886478613075,3514909.6971428706,277.7875020059779,3069.1216354829344,55.34275315625864,1.9720585923628466,4.509745559999338e-05
0.049,3898.488249985254,5.427681153863819,3514445.4595152545,277.78218842125267,3071.666011844638,55.320777255277484,1.972470962880866,5.179011415480346e-05
0.056,4163.617093060757,5.343379739700835,3514003.8246949892,277.7771330639675,3072.8894487479492,55.29980519618046,1.9728614729309766,5.831529008825008e-05
0.063,4360.783162162338,5.280412871925097,3513579.9859859906,277.7722809766872,3073.5088025654995,55.27962538051409,1.9732347900308371,6.470524734150243e-05
0.07,4506.162859093918,5.234363244488583,3513169.874997518,277.76758563286637,3073.8281235526624,55.260058230967545,1.973594848273593,7.098857081963484e-05
0.07700000000000001,4613.531404506211,5.201290981682856,3512770.1758994428,277.76300910540317,3072.8475939840773,55.24095707295536,1.9739448431922162,7.718939626149673e-05
0.08400000000000002,4691.619855133806,5.178040179370897,3512378.2663666424,277.7585213950655,3072.164829489848,55.22220571506088,1.9742872951283756,8.332733367091002e-05
0.09100000000000003,4748.224819825295,5.161911037848996,3511992.1136279665,277.7540992439351,3071.704171207041,55.20371397514609,1.9746241535460993,8.941789830700558e-05
0.09800000000000003,4789.067564295157,5.151025221883228,3511610.1816382324,277.7497250753488,3071.430646856445,55.18541364612264,1.9749568890525242,9.547299176437522e-05
0.10500000000000004,4818.425371765525,5.143930162736723,3511231.320809491,277.7453857333642,3071.2904229670207,55.16725364928417,1.9752866007691416,0.00010150162072905917
0.11200000000000004,4839.4432581779265,5.139575802280423,3510854.6808487154,277.7410714861929,3071.243451181766,55.14919618874029,1.9756141007821226,0.00010751050091649556
0.11900000000000005,4854.419100422432,5.137199479554638,3510479.6374823037,277.73677518818147,3071.2715591423366,55.131213508497964,1.9759399847883206,0.00011350459164955887
0.12600000000000006,4865.026492257225,5.136248694306312,3510105.734848191,277.7324916208617,3071.3539064607844,55.113285337985786,1.9762646874617114,0.0001194875294511425
0.13300000000000006,4872.479614200003,5.136325057196474,3509732.641420929,277.7282169887273,3071.4753989989395,55.095396935136,1.9765885247179593,0.00012546196681215092
0.14000000000000007,4877.657329815531,5.137141373267436,3509360.1167894816,277.7239485391208,3071.6251195902432,55.07753761006942,1.9769117255181297,0.0001314298312739946
0.14700000000000008,4881.194741187145,5.138490733543416,3508987.9869757313,277.7196842798086,3071.7951877628093,55.0596996277113,1.9772344554662444,0.00013739251984168789
0.15400000000000008,4883.550255414206,5.140224115745443,3508616.1262632343,277.7154227710308,3071.979921353997,55.04187739959867,1.977556834165333,0.00014335104311491464
0.1610000000000001,4885.0544641511,5.142234203815224,3508244.4439049647,277.71116297337187,3072.1752258153742,55.02406689258434,1.9778789479033358,0.00014930613122926276
0.1680000000000001,4885.945638804571,5.144443719464246,3507872.8744447217,277.7069041369796,3072.378151650236,55.00626519826211,1.9782008588842603,0.00015525831125290124
0.1750000000000001,4886.395439235551,5.1467970147950455,3507501.370692865,277.7026457211586,3072.586574604705,54.988470220480764,1.978522611924028,0.00016120796348418557
0.1820000000000001,4886.52749953282,5.149254017157526,3507129.8986404543,277.69838733614796,3072.7989649308397,54.97068044910452,1.9788442392963081,0.00016715536227502397
0.22200000000000011,4886.43084647819,5.151785868968778,3506758.4337829812,277.6941287010322,3073.014221062662,54.95289479649693,1.9791657642337805,0.00017310070556779276
0.2620000000000001,4881.027550077534,5.157540002710267,3504632.7129060216,277.6697521097748,3073.4229722496793,54.85128850503724,1.9810022613761786,0.00020704747301144384
0.3020000000000001,4877.892688490358,5.171576261503444,3502504.5980131594,277.6453371425861,3074.5753891213635,54.749700653957454,1.9828378884318345,0.00024094824940026937
0.3420000000000001,4873.523157628325,5.188128359037956,3500375.0043356307,277.62089425850854,3075.923268066798,54.648171852338514,1.9846717722316791,0.00027479593210899235
0.38200000000000006,4869.888151925985,5.203186752862563,3498243.359910745,277.5964168542343,3077.154245008611,54.54667703324497,1.9865044420655482,0.000308595267069684
0.42200000000000004,4865.826909078362,5.219158498583129,3496109.9986747727,277.57190872389447,3078.4560454107614,54.44523109163268,1.9883355742954034,0.0003423437956518771
0.462,4862.030120731136,5.234620521308393,3493974.7194613004,277.54736751698863,3079.7078678375888,54.343825348423756,1.9901653482664088,0.00037604330161056254
0.502,4858.504201326717,5.250416320332037,3491837.6365065826,277.5227945061885,3080.4339380208667,54.2424650053499,1.9919936473498567,0.0004096930707028857
0.542,4854.905755638949,5.266229164270167,3489698.677011521,277.49818881437045,3081.1592588257117,54.1411470453664,1.9938205301368277,0.000443293863244415
0.5820000000000001,4851.35319705904,5.281969635519052,3487557.8040037802,277.4735499752094,3081.8812909600933,54.03987003586542,1.9956460214146519,0.00047684615181551476
0.6220000000000001,4847.781921520617,5.297783206429883,3485415.034934586,277.44887814827763,3082.60620152717,53.93863493197882,1.9974700951560975,0.0005103499793547958
0.6620000000000001,4844.228055124551,5.313586667599571,3483270.3554200376,277.4241731266051,3083.330452374346,53.83744129623517,1.9992927550105177,0.0005438056364476058
0.7020000000000002,4840.671311117542,5.3294270463637,3481123.7689206437,277.3994349085066,3084.056042927837,53.73628947326214,2.0011139880198154,0.0005772132721518387
0.7420000000000002,4837.122950282301,5.345278165207146,3478975.2688363604,277.3746633762392,3084.781860134599,53.63517936974337,2.002933790571741,0.0006105731121182895
0.7820000000000003,4833.576627789459,5.361154898516127,3476824.854139504,277.3498584761037,3085.5085361674596,53.53411113707739,2.0047521538841253,0.0006438853367084462
0.8220000000000003,4830.035805139685,5.377049146124736,3474672.520634776,277.32502011770634,3086.235726574062,53.433084790187685,2.00656907210581,0.0006771501490061274
0.8620000000000003,4826.498493855278,5.392965639346478,3472518.265835748,277.30014823018877,3086.9636322841006,53.332100419950045,2.008384537803637,0.0007103677369861607
0.9020000000000004,4822.965729300964,5.408901957352495,3470362.086249585,277.2752427309019,3087.6921502516016,53.2311580750558,2.010198544470363,0.0007435382945583598
0.9420000000000004,4819.436991083191,5.424859657676965,3468203.978885937,277.2503035428193,3088.419937486929,53.13025782758295,2.012011085132629,0.0007766620099273052
0.9820000000000004,4815.912185903758,5.440838476923361,3466043.9404201596,277.22533058487346,3089.1477233799824,53.02939973667918,2.0138221531209033,0.000809739072059407
1.0220000000000005,4812.391421799173,5.456838323958806,3463881.967502152,277.20032377551905,3089.8761643893126,52.928583861977565,2.01563174178438,0.0008427696683157963
1.0620000000000005,4808.874707839963,5.472859403799557,3461718.0568419374,277.1752830337222,3090.605270305733,52.82781026728629,2.0174398444125075,0.0008757539838180553
1.1020000000000005,4805.3619784179255,5.488901911221943,3459552.2051345,277.15020827809116,3091.335049125186,52.72707901732617,2.0192464543037847,0.0009086922020443201
1.1420000000000006,4801.853207419098,5.5049659489453395,3457384.409026169,277.1250994264853,3092.0655049660086,52.626390176282456,2.0210515647959983,0.000941584505101674
1.1820000000000006,4798.348347793234,5.521051671850432,3455214.6651343056,277.0999563962416,3092.7966441400145,52.52574380865432,2.022855169247844,0.0009744310735921842
1.2220000000000006,4794.833420648914,5.537159206186404,3453042.9700364834,277.07477910404765,3093.5082512871822,52.425139978791975,2.0246572610483096,0.0010072320867104468
1.2620000000000007,4791.040737593633,5.5533041034233115,3450869.320276384,277.049567466008,3093.8310501042497,52.324578751152266,2.0264578336108707,0.0010399877222141876
1.3020000000000007,4787.0110547527,5.569752731802032,3448693.706312681,277.0243213274084,3094.1567409439226,52.22405993131339,2.028256885836586,0.0010726982018902534
1.3420000000000007,4783.10948082947,5.585923724086434,3446516.011285738,276.9990392870049,3094.477665207701,52.123578740282504,2.030054513307434,0.0011053645496772277
1.3820000000000008,4779.148444548449,5.6022751680709195,3444336.2924134014,276.9737219632773,3094.801581416211,52.02313785679276,2.031850654258655,0.001137986478468742
1.4220000000000008,4775.221734004722,5.618571146982585,3442154.5150412596,276.94836890798194,3095.124450187711,51.92273603077186,2.033645329815632,0.0011705643891058112
1.4620000000000009,4771.282561302958,5.634930207982454,3439970.6905879336,276.92298020775985,3095.4483037085442,51.82237398241005,2.035438519592081,0.0012030983357904307
1.502000000000001,4767.35410673665,5.6512933650090496,3437784.807419287,276.8975556811803,3095.7721298580122,51.72205144977759,2.0372302239191704,0.0012355885433659466
1.542000000000001,4763.4248212125085,5.66769020416536,3435596.865316008,276.87209527929514,3096.096436281182,51.6217686591013,2.0390204328707866,0.0012680351499993422
1.582000000000001,4759.500349091997,5.684106243193895,3433406.8583354075,276.8465988863769,3096.4209740222555,51.5215255946297,2.040809141637109,0.0013004383348540593
1.622000000000001,4755.5778459880685,5.700548867995298,3431214.7833103263,276.8210664187769,3096.745869788646,51.42132236026086,2.0425963429136123,0.0013327982549399518
1.662000000000001,4751.658648216895,5.717014641660938,3429020.635645464,276.7954977760029,3097.0710642518543,51.321159000908494,2.044382030658217,0.0013651150762959785
1.702000000000001,4747.742039261941,5.733505469715396,3426824.4113909667,276.76989286485974,3097.3965899622995,51.22103559051325,2.0461661982406016,0.0013973889586620914
1.742000000000001,4743.828308623261,5.750020627761067,3424626.1062221173,276.7442515875626,3097.7224342077498,51.12095218879918,2.0479488393505445,0.0014296200630224704
1.7820000000000011,4739.917254784523,5.766560682879924,3422425.715939914,276.71857384756856,3098.0486065089967,51.020908862468865,2.0497299475524207,0.0014618085479312375
1.8220000000000012,4736.00891591959,5.783125569921651,3420223.2362259584,276.6928595467169,3098.375105489466,50.92090567484664,2.051509516502277,0.0014939545713250069
1.8620000000000012,4732.10321417123,5.799715532720228,3418018.662762008,276.6671085866213,3098.7019350943115,50.820942690929925,2.0532875398415165,0.0015260582896583857
1.9020000000000012,4728.2001283508835,5.816330664821818,3415811.9911716525,276.64132086798753,3099.0290966716266,50.72101997493613,2.0550640112480068,0.0015581198583417835
1.9420000000000013,4724.29961030823,5.83297113300455,3413603.217048504,276.61549629094037,3099.3565928285725,50.62113759149478,2.0568389244107648,0.0015901394315470073
1.9820000000000013,4717.708155349697,5.849637068798236,3411392.335942426,276.58963475486075,3099.4818293205144,50.521295605073746,2.0586122730416547,0.0016221171623185958
2.022000000000001,4709.723825322781,5.866465078229211,3409179.3433660734,276.56373615845996,3099.5084877553536,50.421494080258604,2.0603840508692133,0.0016540532025373434
2.062000000000001,4701.807156299284,5.883247389715125,3406964.1831689053,276.53779979516656,3099.5347375965957,50.32173092515781,2.0621542966813764,0.001685948074264649
2.102000000000001,4693.941241413992,5.900056185414704,3404746.852034569,276.5118255760696,3099.5610144634343,50.22200626498436,2.0639230029053275,0.0017178019155849524
2.1420000000000012,4686.123054026398,5.916893348235649,3402527.3459014576,276.48581340330685,3099.5872904404,50.12232019532254,2.065690162606819,0.0017496148686175453
2.1820000000000013,4678.353740558394,5.933756279013649,3400305.6596586895,276.45976316647705,3099.613568071918,50.02267276967484,2.067455769747863,0.0017813870816401785
2.2220000000000013,4670.632012758932,5.950646465309413,3398081.788681913,276.43367476063054,3099.6398465368493,49.92306406356456,2.069219817848106,0.0018131186980693919
2.2620000000000013,4662.957704478099,5.967563448017342,3395855.728066108,276.4075480772752,3099.666125889973,49.823494142559746,2.070982300651815,0.0018448098619691844
2.3020000000000014,4655.330185665997,5.984507642828989,3393627.4729718748,276.3813830084347,3099.691717787736,49.72396307669708,2.0727432118267313,0.001876460715583995
2.3420000000000014,4647.748630385587,6.001479497378616,3391397.018471214,276.355179444837,3099.7156050670997,49.62447093407643,2.0745025450973134,0.0019080714004484592
2.3820000000000014,4640.211881227384,6.018479633416235,3389164.35945883,276.32893727486817,3099.7394801711916,49.5250177772148,2.0762602943201394,0.0019396420580191746
2.4220000000000015,4632.720723209605,6.035506619057277,3386929.4905437287,276.3026563832908,3099.763351260141,49.42560365861391,2.0780164535754033,0.001971172830437022
2.4620000000000015,4625.273986335047,6.052561838080165,3384692.4067587894,276.27633665958535,3099.7872170572095,49.326228650090854,2.079771016556841,0.002002663855526643
2.5020000000000016,4617.8715099852025,6.069644866724604,3382453.1028694026,276.2499779898208,3099.8110776269386,49.226892814189895,2.081523977166012,0.002034115271693529
2.5420000000000016,4610.512695752036,6.086756105683003,3380211.573697946,276.2235802604684,3099.834932628324,49.12759621759653,2.0832753292331785,0.002065527215642734
2.5820000000000016,4603.197142885452,6.103895594983571,3377967.813980991,276.19714335671887,3099.8587818779724,49.02833892525229,2.0850250666392958,0.002096899823392923
2.6220000000000017,4595.924373618041,6.121063531672244,3375721.818431124,276.170667163208,3099.8826251262135,48.92912100291052,2.086773183262669,0.002128233229850271
2.6620000000000017,4588.6939511023575,6.1382600452744365,3373473.5817099824,276.14415156369665,3099.9064621488938,48.82994251603522,2.0885196730015188,0.002159527569005538
2.7020000000000017,4587.459745732876,6.155485294818645,3371223.0984396692,276.1175964412025,3099.737508959601,48.73080353027752,2.0902645297638474,0.0021907829738623775
2.7420000000000018,4587.067259223056,6.172858622594855,3368970.363197596,276.0910016779373,3099.538374367493,48.63170411127395,2.0920077474713343,0.002221999576480915
2.782000000000002,4586.74004416679,6.190161244498167,3366715.3268895815,276.06436663988393,3099.340187214503,48.532642545043885,2.093749356850832,0.002253177809292885
2.822000000000002,4586.469626636693,6.207529134890247,3364457.998691379,276.037691380481,3099.141262294778,48.43361950273537,2.095489339274662,0.0022843176992165524
2.862000000000002,4586.261483421031,6.224912588085263,3362198.3673268054,276.01097571135864,3098.942233899513,48.33463482208555,2.0972276933663565,0.0023154194134902256
2.902000000000002,4586.115107357411,6.242331405895044,3359936.4294345556,275.9842195373701,3098.742848213222,48.23568866548666,2.0989644110503036,0.0023464830634852968
2.942000000000002,4586.032362279424,6.25977790726623,3357672.178442625,275.9574227251217,3098.5432036070883,48.136781066424845,2.1006994869260427,0.0023775087814846617
2.982000000000002,4586.014257525173,6.277255365019155,3355405.608994947,275.93058515530413,3098.3432582426185,48.037912109710376,2.1024329145450533,0.002408496690212974
3.022000000000002,4586.0621679676815,6.294762693502908,3353136.7151902514,275.90370670185837,3098.1430259650997,47.939081859883444,2.1041646878885416,0.0024394469149413233
3.062000000000002,4586.177379606511,6.31230053597908,3350865.4912801203,275.87678724023414,3097.9424985797773,47.84029038956797,2.105894800782181,0.0024703595787092677
3.102000000000002,4586.361259187865,6.329868853135718,3348591.9313930077,275.8498266441194,3097.741676577495,47.74153776828836,2.107623247126461,0.0025012348042191502
3.142000000000002,4586.61519357174,6.347467874744079,3346316.029642566,275.822824786721,3097.5405570348207,47.64282406686715,2.1093500208058176,0.0025320727131031818
3.182000000000002,4586.9406132736085,6.365097725574915,3344037.780084892,275.7957815402552,3097.339138360243,47.54414935570627,2.11107511572379,0.002562873426220801
3.222000000000002,4587.338985658372,6.382758571877053,3341757.176734963,275.76869677613973,3097.1374184396136,47.44551370545993,2.112798525788924,0.0025936370635534067
3.2620000000000022,4587.81181902035,6.400450564257675,3339474.213559948,275.7415703649119,3096.9353953577643,47.34691718677607,2.1145202449198575,0.0026243637442556296
3.3020000000000023,4588.360662901344,6.418173859876844,3337188.884481525,275.7144021762531,3096.733067118667,47.24835987039906,2.1162402670429636,0.002655053586645804
3.3420000000000023,4588.98710977494,6.435928613867365,3334901.1833746857,275.6871920789718,3096.530431753346,47.14984182713285,2.1179585860928785,0.0026857067082197835
3.3820000000000023,4586.927643333389,6.453714982647524,3332611.1040679165,275.65993994100296,3096.224223449237,47.05136312785787,2.119675196011919,0.002716323225655653
3.4220000000000024,4583.254882371444,6.47158857715728,3330318.640342809,275.6326456294005,3095.8564335339724,46.95292384352723,2.121390090749922,0.002746903254821806
3.4620000000000024,4579.57783825081,6.489473770324956,3328023.766229456,275.6053087755509,3095.488333452034,46.85452325986808,2.1231032803324394,0.002777447041780569
3.5020000000000024,4575.905647497191,6.507383190811074,3325726.4727948704,275.5779292131365,3095.1198855983507,46.756161346988286,2.124814760758771,0.0028079547172867097
3.5420000000000025,4572.233917832648,6.5253298526618035,3323426.7552027204,275.550506824306,3094.7507893800625,46.65783824036548,2.1265245246517113,0.002838426383724628
3.5820000000000025,4568.564290419599,6.543307639671615,3321124.6060933354,275.52304146079825,3094.3811777749906,46.55955397697452,2.128232566656932,0.0028688621591405512
3.6220000000000026,4564.896141961574,6.561319120672539,3318820.019037111,275.49553298509585,3094.010995903689,46.461308632853346,2.129938880628728,0.0028992621543081675
3.6620000000000026,4561.230049217435,6.57936358693031,3316512.9871963887,275.46798125446736,3093.6378934178497,46.36310226988395,2.131643460717797,0.0029296264816038343
3.7020000000000026,4557.564249613845,6.597443493590079,3314203.5038110144,275.4403861267563,3093.2639303319224,46.26493495509479,2.1333463009766542,0.0029599552517995805
3.7420000000000027,4553.900883139233,6.615554520904572,3311891.5613295548,275.41274744999333,3092.889458465777,46.166806726349556,2.135047396058655,0.0029902485797635315
3.7820000000000027,4550.239213805403,6.633699778399488,3309577.1533531127,275.3850650856259,3092.514411239957,46.068717669172194,2.1367467396519317,0.00302050657171613
3.8220000000000027,4546.5794694457845,6.651878379952193,3307260.2730019246,275.357338889,3092.1388077227543,45.97066785214221,2.1384443257965944,0.003050729335966468
3.8620000000000028,4542.921544083143,6.6700908526587,3304940.9134967653,275.32956871630677,3091.7626368223223,45.872657349876114,2.140140148416176,0.0030809169791050453
