time,thrust,OF,ox_tank.pressure,ox_tank.temperature,combustion_chamber.temperature,propellant_mass,propellant_CG,combustion_chamber.fuel_grain.geometry.length_regressed
0.007,236.43388781539326,10.006719832724217,4579707.337267669,288.8047011808782,2796.4664471981464,55.70424169563993,1.8888695414151222,6.469286523841308e-06
0.014,807.3259337838971,9.519676433844406,4578646.273620124,288.79472893907587,2942.823979113807,55.67096123451351,1.8896561675858035,1.292006382292065e-05
0.021,1816.3113141220226,9.276926992483318,4577639.773397273,288.78526788990956,2999.0646075345567,55.639330014926806,1.8904000764055173,1.92001560636891e-05
0.028,2670.9858380976843,9.063016973426436,4576684.935083134,288.7762910076538,3034.153671897169,55.60926131358799,1.8911036366082619,2.531447494919355e-05
0.035,3374.422781809673,8.874925247223077,4575776.78308203,288.7677517328117,3059.1666743854416,55.58060598670525,1.8917707989774493,3.127510910697428e-05
0.042,3947.4197179519792,8.71277619829163,4574909.878227917,288.7595991072105,3077.872549857838,55.55320074109528,1.8924058479254922,3.709660180967462e-05
0.049,4410.19813567327,8.575760794934345,4574078.725457798,288.7517816090679,3092.270634151906,55.52688036082347,1.8930130874300966,4.2794692412604694e-05
0.056,4781.053563240087,8.462161541847923,4573278.03053481,288.74424957098597,3103.3699127556088,55.50148544467493,1.8935966455212305,4.838540267346418e-05
0.063,5076.326106538285,8.369547109155274,4572502.8761386415,288.7369568407312,3112.007931104667,55.476867749380965,1.8941603420706936,5.388430166734542e-05
0.07,5310.064309417666,8.295183895896338,4571748.839596984,288.7298618935465,3118.7298124638464,55.45289379220793,1.8947076020221962,5.9305922332106505e-05
0.07700000000000001,5494.1307518420945,8.2362799863303,4571012.047997121,288.7229283553878,3123.930209455962,55.42944656916912,1.8952414167214444,6.4663385122216e-05
0.08400000000000002,5638.432291614755,8.190180189045014,4570289.18708668,288.7161250910765,3127.903641700023,55.40642587322846,1.895764340345812,6.996820021387652e-05
0.09100000000000003,5751.167322547609,8.154511151820445,4569577.476698853,288.7094259769761,3130.9652140618837,55.3837475914015,1.896278511455979,7.52302183460324e-05
0.09800000000000003,5838.948395140211,8.127238024422006,4568874.622618867,288.7028094513926,3133.3207205077993,55.361342278651335,1.896785691996988,8.045769984389144e-05
0.10500000000000004,5907.0945963576105,8.106652456653226,4568178.756229958,288.69625794936377,3135.107284502864,55.33915335214938,1.8972873150975365,8.565745895992056e-05
0.11200000000000004,5959.846464118064,8.091356593072039,4567488.372101197,288.6897573175122,3136.467962211962,55.31713521526689,1.897784533982543,9.083504094736026e-05
0.11900000000000005,6000.5671749507155,8.080218712817215,4566802.267805655,288.6832962493914,3137.48969940676,55.29525144333792,1.8982782688157889,9.599490991404551e-05
0.12600000000000006,6031.908279785558,8.07233616307916,4566119.489789341,288.6768657773636,3138.2437620209525,55.27347314874633,1.898769248647504,0.00010114062771652403
0.13300000000000006,6055.951230277506,8.06699445235471,4565439.286084773,288.67045882856144,3138.7963568062887,55.25177755088637,1.899258047935096,0.00010627501651580532
0.14000000000000007,6074.32211684521,8.063633410038532,4564761.066301,288.664069849069,3139.1920318577577,55.23014676509584,1.8997451173671396,0.00011140030012585171
0.14700000000000008,6088.289714237068,8.061813024090071,4564084.3683329625,288.6576944911402,3139.465706234805,55.208566794375294,1.9002308094591953,0.00011651822398247
0.15400000000000008,6098.8420036600455,8.061189548452257,4563408.831436996,288.65132936018296,3139.644642647435,55.187026713578376,1.900715399224474,0.00012163015354181591
0.1610000000000001,6106.747099952513,8.061495082000375,4562734.174573246,288.64497181120106,3139.7500787275735,55.16551801301812,1.9011991007798357,0.0001267371542747257
0.1680000000000001,6112.601447586935,8.062521200913018,4562060.179141841,288.6386197865071,3139.798530661827,55.14403407516336,1.9016820805686672,0.0001318400559384527
0.1750000000000001,6116.867747851393,8.064105966991221,4561386.675317182,288.63227168723984,3139.802826348831,55.12256976037456,1.902164467818266,0.00013693950375486097
0.1820000000000001,6119.904685225318,8.066123683763498,4560713.531287932,288.6259262721865,3139.7729193032824,55.10112108072724,1.9026463627670107,0.0001420359988848612
0.1890000000000001,6121.990153826601,8.0684768579021,4560040.644819698,288.619582578435,3139.716526978299,55.07968494425611,1.9031278431109886,0.00014712993027087
0.19600000000000012,6123.339361678904,8.071089913345029,4559367.936659718,288.61323985934115,3139.6396297093047,55.058258955054555,1.9036089690398865,0.0001522215995880947
0.20300000000000012,6124.118916296588,8.073904288743195,4558695.34539396,288.60689753615105,3139.5468597286153,55.03684125741359,1.9040897871615297,0.00015731124073599376
0.21000000000000013,6124.457768005909,8.076874621212236,4558022.823444178,288.6005551603417,3139.441803890959,55.01543041452693,1.9045703335547643,0.00016239903502872677
0.21700000000000014,6124.455702659841,8.079965779999615,4557350.3339567445,288.59421238434817,3139.3272389080435,54.99402531423278,1.905050636140952,0.00016748512301221065
0.2570000000000001,6124.189926969344,8.08315056330288,4556677.848387236,288.5878689388344,3139.205313936945,54.97262509584745,1.9055307165241724,0.00017256961364412645
0.2970000000000001,6116.6352505970945,8.089396687686673,4552828.851271976,288.5515483818555,3138.862446477845,54.85036880744688,1.908271641867878,0.00020160024996427432
0.3370000000000001,6111.157936324709,8.107771138695057,4548976.334179201,288.51517139685086,3138.101000401778,54.728162820557344,1.9110080426470974,0.00023059252761930716
0.37700000000000006,6104.213757166271,8.128706253038215,4545121.296804144,288.4787473368768,3137.223243059004,54.60603759726361,1.9137391595442925,0.00025954278345691976
0.41700000000000004,6097.568563244352,8.148610354998084,4541263.021465197,288.44226933678976,3136.3882602038966,54.48397204203076,1.9164655205178234,0.0002884538171848645
0.457,6090.899909039792,8.16870402658848,4537401.638531874,288.4057385393893,3135.546088673291,54.36197052105386,1.9191870178235444,0.0003173252350911641
0.497,6084.228940522756,8.188802753693185,4533537.12382134,288.36915462679826,3134.7038741913457,54.24003276657672,1.9219036593121999,0.00034615722306645315
0.537,6077.561138547413,8.208911604833364,4529669.463155349,288.3325173750701,3133.861509687361,54.118158813128986,1.924615445287119,0.00037494992805273255
0.5770000000000001,6070.894367032754,8.229035646784089,4525798.644985156,288.2958265845604,3133.0187763081285,53.996348775988984,1.9273223740384364,0.00040370348584519393
0.6170000000000001,6064.228897548486,8.249173563352661,4521924.65669553,288.25908204493675,3132.175726910657,53.87460274076611,1.9300244445867585,0.00043241803490122883
0.6570000000000001,6057.545916742014,8.269325617559112,4518047.485767047,288.2222835461781,3131.3093415175113,53.752920798130674,1.9327216558202873,0.00046109371201239103
0.6970000000000002,6050.876218720483,8.28947225158686,4514167.119613324,288.1854308770288,3130.435290374656,53.63130303897226,1.9354140066148333,0.0004897306529196801
0.7370000000000002,6044.210411117693,8.309640073268353,4510283.554803643,288.1485239126675,3129.5606758146814,53.509749827603876,1.938101489101957,0.0005183289583864586
0.7770000000000002,6037.545014069646,8.329824365882201,4506396.77999979,288.1115624526718,3128.6856289725356,53.38826129520686,1.9407841011772156,0.0005468887572318119
0.8170000000000003,6030.881360431579,8.350021960790498,4502506.782114851,288.07454627939626,3127.810291574576,53.2668375233287,1.9434618419533995,0.0005754101834543064
0.8570000000000003,6024.2191728901735,8.370233893596476,4498613.548674377,288.037475180405,3126.934619814663,53.14547861389326,1.9461347100340995,0.000603893367539794
0.8970000000000004,6017.55840597811,8.390460118800585,4494717.067032474,288.0003489410165,3126.0586149353144,53.02418466598694,1.9488027040857276,0.000632338439356277
0.9370000000000004,6010.89901212706,8.410700712782607,4490817.3244833145,287.9631673453584,3125.1822734563975,52.902955779178214,1.951465822755583,0.0006607455277513417
0.9770000000000004,6004.240936874956,8.430955757892342,4486914.308259702,287.925930176349,3124.3055915721084,52.78179205349106,1.9541240646723539,0.0006891147605651969
1.0170000000000003,5997.584127852179,8.451225330188302,4483008.005529009,287.88863721565355,3123.4285657539785,52.66069358930318,1.9567774284484567,0.0007174462646528459
1.0570000000000004,5990.928532767157,8.47150950631683,4479098.403393619,287.85128824368286,3122.551192456574,52.53966048737459,1.9594259126791802,0.0007457401658899863
1.0970000000000004,5984.274115880983,8.491808362263592,4475185.488890276,287.8138830395824,3121.6728627316347,52.41869284884733,1.9620695159425334,0.0007739965891823714
1.1370000000000005,5977.619803109489,8.512123116302526,4471269.248989609,287.7764213812219,3120.792499061266,52.29779077524769,1.964708236799048,0.0008022156584747324
1.1770000000000005,5970.963211307704,8.532455765030521,4467349.670068233,287.7389030401358,3119.911614625756,52.17695435309667,1.967342074165444,0.0008303974986540349
1.2170000000000005,5964.307267280945,8.552801931648375,4463426.73728766,287.70132777555,3119.030421404036,52.05618363592831,1.9699710277482487,0.0008585422377617355
1.2570000000000006,5957.635200487481,8.57316398593328,4459500.437219244,287.6636953595073,3118.130133797335,51.935478720945376,1.9725950961812688,0.0008866499975656538
1.2970000000000006,5950.974299155113,8.593525425680085,4455570.756051944,287.62600555971386,3117.226066648103,51.814839696645244,1.9752142782994815,0.0009147209000221712
1.3370000000000006,5944.313755229347,8.613910102469733,4451637.687351904,287.5882582140203,3116.3213007993636,51.6942668681551,1.9778285676927345,0.0009427550396350742
1.3770000000000007,5937.653132177809,8.63431068873757,4447701.217435769,287.55045309013514,3115.4161201405286,51.573760331746094,1.9804379630072855,0.0009707525357345541
1.4170000000000007,5930.992965916409,8.65472638623878,4443761.332338509,287.512589952375,3114.510564385468,51.45332017799896,1.9830424630163777,0.0009987135074915633
1.4570000000000007,5924.333082740801,8.675157725680219,4439818.018316976,287.47466856649584,3113.6046102236423,51.332946506423035,1.9856420662673187,0.0010266380721337923
1.4970000000000008,5917.673442141291,8.695604702676036,4435871.261494279,287.4366886962736,3112.698257481688,51.21263941515025,1.9882367713304028,0.001054526346218683
1.5370000000000008,5911.013996941849,8.716067392129856,4431921.0479252,287.39865010412615,3111.791502755623,51.09239900285252,1.990826576752492,0.0010823784454063571
1.5770000000000008,5904.354697246519,8.73654586801935,4427967.363592246,287.3605525510694,3110.8843426430417,50.97222536864828,1.993411481059165,0.0011101944844791362
1.6170000000000009,5897.695494277578,8.75704020112194,4424010.1944036,287.32239579669186,3109.9767738892465,50.85211861206224,1.9959914827555563,0.0011379745773544303
1.657000000000001,5891.036339346812,8.777550462290213,4420049.526192931,287.2841795991464,3109.0687932426,50.73207883304114,1.9985665803258823,0.001165718837090653
1.697000000000001,5884.377183956797,8.798076721769634,4416085.344718752,287.24590371513796,3108.1603974829704,50.6121061319548,2.0011367722332953,0.0011934273758948512
1.737000000000001,5877.717979807661,8.818619049243322,4412117.63566374,287.20756789991094,3107.251583420035,50.49220060959874,2.003702056919723,0.0012211003051300537
1.777000000000001,5871.058678787037,8.83917751384452,4408146.384634148,287.169171907237,3106.3423478926193,50.37236236719687,2.0062624328056997,0.001248737735322504
1.817000000000001,5864.398340781974,8.859752184151528,4404171.577159133,287.13071548940246,3105.431757954538,50.25259150640424,2.008817898290196,0.001276339776168809
1.857000000000001,5857.7244045197285,8.880341495272221,4400193.198690127,287.09219839719555,3104.5053473742673,50.13288812930971,2.0113684517504615,0.0013039065365429935
1.8970000000000011,5851.073685219769,8.900921076409432,4396211.2353339335,287.0536203870049,3103.5798939898523,50.01325235932446,2.0139140910465376,0.0013314381219686703
1.9370000000000012,5844.417289994973,8.921536579140401,4392225.684450328,287.01498132361377,3102.6531398699067,49.893684642259444,2.016454806393778,0.0013589345981231487
1.9770000000000012,5837.76102629676,8.942164898880872,4388236.528537817,286.9762809271372,3101.7261003215262,49.77418500287081,2.0189905979982643,0.0013863960810935414
2.0170000000000012,5831.104510540613,8.962809798573952,4384243.752984645,286.9375189449135,3100.7986185009418,49.65475355097595,2.0215214640351014,0.0014138226758936925
2.0570000000000013,5824.447557717752,8.983471303450568,4380247.342933473,286.89869512112625,3099.8689664126755,49.53539039213966,2.0240474027685424,0.0014412144873190511
2.0970000000000013,5817.79282958585,9.004146256455586,4376247.283380528,286.85980919775653,3098.9384941568906,49.416095630532176,2.0265684124838432,0.0014685716196057236
2.1370000000000013,5811.137864040758,9.024839098667519,4372243.560642921,286.82086092885294,3098.007532536399,49.29686941036877,2.029084490512068,0.0014958941714291918
2.1770000000000014,5804.482230419311,9.045548942021757,4368236.159706382,286.7818500547435,3097.0761112948594,49.17771184091336,2.031595634998136,0.0015231822449848092
2.2170000000000014,5797.826054327518,9.066275419719252,4364225.06526989,286.74277631216677,3096.1442473758616,49.05862302614913,2.03410184419903,0.0015504359423979095
2.2570000000000014,5791.1692646389465,9.087018722984872,4360210.262037112,286.7036394371,3095.21193236966,48.939603073031265,2.036603116289465,0.0015776553647326656
2.2970000000000015,5784.511814940979,9.107778899346531,4356191.734613997,286.66443916375545,3094.2791640187097,48.820652088619916,2.039099449429308,0.0016048406123451628
2.3370000000000015,5777.853660337055,9.128556008217872,4352169.467520606,286.6251752246884,3093.345939614044,48.701770180436526,2.0415908417551147,0.0016319917848467414
2.3770000000000016,5771.194754903955,9.149350110665226,4348143.445191053,286.58584735078915,3092.4122563699,48.58295745648806,2.0440772913795127,0.0016591089811074007
2.4170000000000016,5765.918041872637,9.17016126624717,4344113.651972195,286.54645527126286,3091.472915150756,48.46421402525314,2.0465587963914573,0.0016861922992637396
2.4570000000000016,5762.298168900907,9.19097547171258,4340080.072122918,286.50699871361513,3090.5277290670197,48.34553999568807,2.049035354856045,0.0017132418367244056
2.4970000000000017,5758.712785913906,9.211800329389504,4336042.696004587,286.46747746426286,3089.5825031277936,48.22693564961027,2.0515069608092054,0.0017402576694789454
2.5370000000000017,5755.1505045304675,9.232652537159659,4332001.513659744,286.4278913058157,3088.6363517248233,48.10840126190848,2.053973608456848,0.001767239873751824
2.5770000000000017,5751.612902581936,9.253519915731628,4327956.50760428,286.3882399463817,3087.6898166084147,47.98993690052926,2.0564352968079747,0.0017941885499860703
2.6170000000000018,5748.1003258234505,9.274404633066336,4323907.661905908,286.3485231083903,3086.7428062422173,47.87154267968929,2.0588920237825623,0.001821103792417978
2.657000000000002,5744.612942938105,9.295306708043144,4319854.960438996,286.30874051150363,3085.7953186428363,47.7532187112595,2.061343787342169,0.001847985694924248
2.697000000000002,5741.151008324545,9.316226130431378,4315798.38695064,286.26889187325474,3084.847354267834,47.63496510663842,2.0637905854462137,0.001874834350802346
2.737000000000002,5737.714769186501,9.33716297050954,4311737.925105933,286.2289769094831,3083.8989099619102,47.516781978033606,2.0662324160222516,0.0019016498526225698
2.777000000000002,5734.304476411113,9.358117281286175,4307673.558474741,286.1889953341969,3082.9499833095706,47.39866943812194,2.0686692769738118,0.0019284322922744174
2.817000000000002,5730.920385553134,9.379089115946817,4303605.270531913,286.1489468595669,3082.0005718995494,47.280627600082866,2.0711011661795906,0.001955181760968189
2.857000000000002,5727.562756327792,9.400078527484514,4299533.0446566595,286.1088311959119,3081.0506733323173,47.16265657760723,2.073528081493224,0.0019818983492394435
2.897000000000002,5724.231852767226,9.42108556816405,4295456.864131587,286.06864805168084,3080.100285244309,47.04475648489842,2.0759500207432255,0.0020085821469543177
2.937000000000002,5720.92794328997,9.442110289646367,4291376.712141834,286.02839713343593,3079.149405302521,46.92692743667614,2.0783669817328834,0.0020352332433144775
2.977000000000002,5717.557257067952,9.463152742976185,4287292.571774161,285.9880781458348,3078.197424814149,46.80916954817976,2.0807789622401605,0.0020618517268620367
3.017000000000002,5710.531451385563,9.48421237655161,4283204.426016109,285.9476907916136,3077.2359597499403,46.69148293517192,2.083185960017589,0.002088437685484417
3.057000000000002,5703.52923012035,9.505259883694155,4279112.258015397,285.9072347741437,3076.2755803287796,46.573867721037246,2.0855879726305413,0.0021149912055751494
3.097000000000002,5696.52048530032,9.526346741339477,4275016.063629257,285.8667099216309,3075.313748363718,46.4563243782027,2.0879849896913245,0.0021415123314556085
3.1370000000000022,5689.511032255727,9.54744786933497,4270915.822818801,285.82611590425284,3074.3515718762683,46.33885294833074,2.090377010630212,0.002168001158163196
3.1770000000000023,5682.500632962754,9.568566863882497,4266811.518357481,285.78545241901065,3073.3889011755846,46.221453553154916,2.0927640330377737,0.0021944577706308824
3.2170000000000023,5675.4890799878185,9.589703899528272,4262703.132849231,285.74471916024856,3072.425726568556,46.10412631313581,2.0951460545203258,0.00222088225337613
3.2570000000000023,5668.476370788495,9.610858870706371,4258590.6487054005,285.70391581941334,3071.4620527609272,45.98687134688111,2.0975230727127485,0.0022472746905738473
3.2970000000000024,5661.46245871006,9.632031850458025,4254474.048252937,285.6630420861165,3070.497876541768,45.86968877411511,2.0998950852110307,0.0022736351657084135
3.3370000000000024,5654.447299279339,9.65322288318691,4250353.313711184,285.6220976478945,3069.533195903828,45.752578715078094,2.102262089585916,0.0022999637616498646
3.3770000000000024,5647.43084920886,9.674432012201176,4246228.427191674,285.5810821901978,3068.5680089062694,45.635541290552965,2.104624083382303,0.0023262605606554957
3.4170000000000025,5640.4130649765175,9.69565928122328,4242099.370697787,285.5399953963769,3067.6023135925957,45.51857662188556,2.1069810641187994,0.0023525256443721818
3.4570000000000025,5633.393903153203,9.716904733094536,4237966.12612357,285.49883694766146,3066.6361080481647,45.401684830984166,2.109333029287746,0.0023787590938410975
3.4970000000000026,5626.373320380875,9.738168409986416,4233828.675252679,285.45760652313953,3065.6693903912437,45.28486604032381,2.1116799763551444,0.0024049609895018405
3.5370000000000026,5619.351273361777,9.759450353396028,4229686.999757399,285.41630379973776,3064.7021587730287,45.16812037295015,2.114021902760581,0.002431131411196529
3.5770000000000026,5612.32976898223,9.780750604133221,4225541.081197548,285.3749284522004,3063.731305184785,45.05144795248344,2.1163588059171694,0.0024572704381738563
3.6170000000000027,5605.326324774829,9.802044659456033,4221390.901019441,285.3334801530686,3062.7602079299413,44.934848903122564,2.11869068321149,0.0024833781490930904
3.6570000000000027,5598.323207688817,9.823366412551469,4217236.450982466,285.29195867691647,3061.788239300073,44.81832362705912,2.12101752581952,0.0025094545893334743
3.6970000000000027,5591.317257083602,9.84470937193632,4213077.713571337,285.25036370473964,3060.8156201913002,44.70187228198766,2.123339330382177,0.0025354998326463413
