time,thrust,OF,ox_tank.pressure,ox_tank.temperature,combustion_chamber.temperature,propellant_mass,propellant_CG,combustion_chamber.fuel_grain.geometry.length_regressed
0.007,231.9985972381347,7.94071637467708,4223664.661623284,285.3561922193143,2746.142728376897,53.25793237731516,1.9014007364977386,8.213610908994128e-06
0.014,733.9581528554351,7.531691614146579,4222747.94461693,285.3470364466249,2892.596538083836,53.226150532236026,1.9020910003135567,1.640204426524459e-05
0.021,1686.607273279832,7.329837807131675,4221881.214444463,285.33837855352823,2947.5362135236123,53.1960256277807,1.902741049412476,2.4360178154310173e-05
0.028,2482.044692638194,7.154211648718248,4221061.545304234,285.33018953681,2980.1236973524174,53.167462151818356,1.9033533401099179,3.2095570740109474e-05
0.035,3133.2670011063647,7.001916700487558,4220284.013020581,285.32242039493207,3002.1438689697025,53.140298525260285,1.903931895228096,3.962606096816825e-05
0.042,3667.752943374239,6.872766862460846,4219543.290761095,285.3150180649793,3017.6028657090415,53.11435953527904,1.90448103007887,4.6972877426006414e-05
0.049,4096.3120251841265,6.765627961539922,4218834.060940978,285.3079295406675,3028.9839936713806,53.089469896793815,1.9050050262092575,5.415872803994228e-05
0.056,4424.991434765439,6.678565860783397,4218151.27617667,285.3011044842189,3037.093686029246,53.065462906463544,1.9055079276640545,6.120638532955354e-05
0.063,4679.7423471225575,6.609119009043187,4217490.328014016,285.2944969175298,3043.064680781515,53.04218609353138,1.9059934117517423,6.81375940946993e-05
0.07,4878.273795417799,6.5546118792302135,4216847.14512975,285.2880662086955,3047.5715318000166,53.01950455648287,1.9064647160900678,7.497227875008549e-05
0.07700000000000001,5032.266617003594,6.512468718729868,4216218.232153591,285.2817774648089,3050.9712482445993,52.997302332670685,1.9069246123563832,8.172805736397197e-05
0.08400000000000002,5151.233511293019,6.480343714204804,4215600.656828322,285.27560140783,3053.535259557039,52.97548204247281,1.9073754201461264,8.842006416829985e-05
0.09100000000000003,5242.824049970499,6.456208359302612,4214992.00682113,285.2695139464193,3055.474854496699,52.95396350893141,1.9078190439460707,9.506098677109707e-05
0.09800000000000003,5312.0456011714405,6.438371365650391,4214390.329005219,285.2634955718457,3056.895448035885,52.93268177818379,1.9082570231245506,0.00010166125123019423
0.10500000000000004,5362.409136480439,6.425460564190019,4213794.06218564,285.2575306877166,3057.875534653671,52.911584907907255,1.9086905864085901,0.00010822928861522072
0.11200000000000004,5401.056017648044,6.416380310710976,4213201.97079405,285.25160694883954,3058.6030634596214,52.890631777499486,1.9091207050744359,0.00011477183173697754
0.11900000000000005,5430.680431287273,6.4102585664435345,4212613.084519632,285.245714658977,3059.1512031860634,52.86979008854863,1.90954814109007,0.00012129420468510161
0.12600000000000006,5453.374626301424,6.406416011000313,4212026.646625982,285.2398462550916,3059.5616022513923,52.84903464970296,1.9099734881710781,0.00012780058166606657
0.13300000000000006,5470.7539782192225,6.404325871791089,4211442.0699116755,285.2339958677348,3059.8663797579748,52.828345913212154,1.9103972066507742,0.0001342942147502429
0.14000000000000007,5484.062257787529,6.4035809187256785,4210858.900436987,285.2281589588761,3060.0902486118107,52.80770876843865,1.9108196521331202,0.00014077762561869977
0.14700000000000008,5494.255165452363,6.403867346179384,4210276.788293921,285.2223320300013,3060.252187784001,52.78711156902556,1.9112410985403616,0.00014725276251085015
0.15400000000000008,5502.065951842988,6.404943899642383,4209695.4643614665,285.21651238994326,3060.3663797769464,52.76654535894717,1.9116617564148768,0.00015372112646440611
0.1610000000000001,5508.056651147051,6.406625425655211,4209114.722002795,285.21069797204575,3060.4425450972103,52.746003262949394,1.9120817873129436,0.00016018387155055606
0.1680000000000001,5512.656835510375,6.40877003188522,4208534.402759697,285.20488719123864,3060.4916342925685,52.725480010049814,1.912501315043885,0.00016664188370163637
0.1750000000000001,5516.195521364001,6.411268931767829,4207954.385231838,285.1990788329176,3060.5200315956527,52.70497156310207,1.912920434399676,0.00017309584226723825
0.1820000000000001,5518.924263371645,6.414038908015568,4207374.576483502,285.19327196706894,3060.532618072865,52.68447483255516,1.9133392178956556,0.00017954626773731392
0.1890000000000001,5521.035301555325,6.417016297881882,4206794.905406957,285.18746588193926,3060.53312447127,52.66398745540445,1.9137577209729602,0.00018599355868742016
0.19600000000000012,5522.675503022028,6.420152414915437,4206215.3176160725,285.1816600329942,3060.5244016006163,52.64350762512767,1.9141759859990735,0.00019243802025422334
0.20300000000000012,5523.957046482858,6.42341003526663,4205635.771524563,285.1758540037134,3060.5086274799373,52.62303396109371,1.914594045338581,0.0001988798860307219
0.24300000000000013,5524.965602053449,6.42676070413657,4205056.235338395,285.1700474755211,3060.48746590064,52.60256540842552,1.9150119237069718,0.00020531933487157337
0.28300000000000014,5520.547608641554,6.432284258896508,4201739.188579221,285.13680158007475,3060.356413107914,52.485633801867955,1.9173980187178454,0.00024208535245556548
0.3230000000000001,5519.141773386754,6.452435831481272,4198419.093113876,285.10350547626473,3060.0592516715255,52.368758013061104,1.919780800267735,0.0002787913033238083
0.3630000000000001,5513.913526384763,6.473993844144291,4195096.316392408,285.07016277261124,3059.626741100604,52.25195049040375,1.92215997168288,0.00031543540160923006
0.4030000000000001,5508.939697873141,6.494805714405291,4191770.326596541,285.03676805432184,3059.208414358504,52.13519403695794,1.924535928694173,0.00035202082188695344
0.44300000000000006,5503.921362095577,6.515832166843907,4188441.2503400235,285.0033225105923,3058.785825231961,52.01849318111188,1.9269085594285718,0.00038854709648666685
0.48300000000000004,5498.918418149044,6.536847456231043,4185109.0505793286,284.9698256877342,3058.3636074659835,51.9018470610058,1.9292778778926394,0.00042501465726331125
0.523,5493.9200763599365,6.55789710157504,4181773.724056447,284.93627747084844,3057.9408472317878,51.78525592948749,1.931643872128708,0.000461423747220979
0.5630000000000001,5488.927997185114,6.578973212504918,4178435.2612311253,284.9026776814528,3057.5176993211744,51.668719835655196,1.9340065349626954,0.0004977746409014169
0.6030000000000001,5483.9418650346315,6.600077305607441,4175093.6535096643,284.8690261501109,3057.094133793969,51.55223886243881,1.936365858467555,0.0005340676047532112
0.6430000000000001,5478.9616437881505,6.621209403185589,4171748.892068403,284.83532270459943,3056.6701494964154,51.43581308798926,1.9387218348612447,0.0005703029036012422
0.6830000000000002,5473.9872652115155,6.642369737688545,4168400.968024467,284.8015671716211,3056.245741338293,51.319442591283604,1.9410744563755493,0.0006064807997435391
0.7230000000000002,5469.018664545056,6.663558516485366,4165049.872414376,284.76775937658476,3055.8209046894085,51.20312745143261,1.9434237152713616,0.0006426015530965119
0.7630000000000002,5464.055777911967,6.684775948656578,4161695.596195798,284.73389914361815,3055.395634902465,51.0868677477464,1.945769603836355,0.0006786654212135471
0.8030000000000003,5459.098542142615,6.706022243102369,4158338.1302473517,284.69998629556125,3054.969927340937,50.970663559736025,1.9481121143841598,0.0007146726593138057
0.8430000000000003,5454.146894882139,6.727297608417481,4154977.465368335,284.6660206539588,3054.543777382831,50.854514967114284,1.9504512392535678,0.0007506235203106624
0.8830000000000003,5448.36644774974,6.748602252996078,4151613.5922785485,284.6320020390536,3054.089001227787,50.73842204979847,1.9527869708076986,0.0007865182548393717
0.9230000000000004,5439.153808119407,6.769944459872826,4148246.501618091,284.5979302697795,3053.517093295915,50.62238488791266,1.9551193014331874,0.0008223571112843794
0.9630000000000004,5429.935371810825,6.791343253524637,4144876.1799189597,284.56380512295607,3052.9434834001586,50.50640343177113,1.9574482265287847,0.0008581403571724877
1.0030000000000003,5420.761017469839,6.8127470951190725,4141502.602269536,284.52962625881804,3052.370004319022,50.39047726633738,1.9597737498993686,0.0008938683177382883
1.0430000000000004,5411.614216252733,6.83418772543919,4138125.763761419,284.49539353954896,3051.795761303331,50.274606625998956,1.9620958604283574,0.0009295412092208311
1.0830000000000004,5402.498064232091,6.855657513595502,4134745.653802068,284.46110676925105,3051.220958428413,50.158791564408766,1.9644145511814257,0.0009651592754698839
1.1230000000000004,5393.411785081406,6.877158074402985,4131362.262795437,284.42676576159545,3050.645553468506,50.0430321701907,1.9667298144453957,0.0010007227525115016
1.1630000000000005,5384.355181947231,6.898689425617506,4127975.580907743,284.39237032731165,3050.069545292487,49.927328527146805,1.9690416426418402,0.0010362318751085617
1.2030000000000005,5375.328001934757,6.920251788835339,4124585.598238487,284.35792027591606,3049.4929277823344,49.811680719778025,1.971350028199649,0.0010716868758795792
1.2430000000000005,5366.329994965357,6.941845371654373,4121192.3048053593,284.3234154155535,3048.915695118897,49.6960888328101,1.97365496356522,0.0011070879854007808
1.2830000000000006,5357.360914671835,6.963470379749861,4117795.690543364,284.2888555529833,3048.3378415567263,49.58055295117734,1.9759564412021537,0.0011424354322327017
1.3230000000000006,5348.420516430723,6.985127019616617,4114395.745305089,284.25424049357656,3047.759361337755,49.46507316004423,1.9782544535900897,0.0011777294429402374
1.3630000000000007,5339.50861275539,7.006815497442047,4110992.4588602604,284.2195700413064,3047.178118933508,49.34964954480303,1.9805489932241,0.0012129702421162548
1.4030000000000007,5330.624295753331,7.028536523424411,4107585.8208954204,284.18484399873904,3046.595728829454,49.23428219107731,1.9828400526139631,0.0012481580524038992
1.4430000000000007,5322.237933210444,7.050289554068239,4104175.8207685603,284.15006216452525,3045.993830092162,49.118971176945784,1.9851276244600708,0.00128329309578015
1.4830000000000008,5316.065849710963,7.072078305342836,4100762.44799589,284.11522433835637,3045.302557496165,49.00371658844007,1.987411701300345,0.0013183755910605
1.5230000000000008,5309.881267322094,7.093912860162889,4097345.6904311553,284.08033030236686,3044.609932624036,48.888518461878384,1.9896922768171308,0.0013534057632594446
1.5630000000000008,5303.7024670606515,7.1157694220140435,4093925.530288369,284.0453797804223,3043.916902791668,48.77337665853081,1.9919693486673269,0.001388383863828345
1.6030000000000009,5297.524626017956,7.137662147286418,4090501.9585187803,284.0103725849916,3043.2230055748773,48.658291319634515,1.9942429081729498,0.0014233100970469617
1.643000000000001,5291.34844807223,7.159588058873628,4087074.9636830185,283.97530850352945,3042.5283332608155,48.54326251371728,1.9965129483195003,0.0014581846771816135
1.683000000000001,5285.173787324123,7.181547838288109,4083644.53463332,283.94018732586653,3041.8328652025925,48.42829032154471,1.9987794618300763,0.00149300781475318
1.723000000000001,5279.000569320724,7.203541660006503,4080210.6600975804,283.90500883995327,3041.136595636774,48.313374822978005,2.001042441462392,0.0015277797186834634
1.763000000000001,5272.828725861377,7.225569729641883,4076773.3287140722,283.8697728322087,3040.439518066951,48.19851609808808,2.003301879982965,0.0015625005961350572
1.803000000000001,5266.6581854846445,7.247632259483341,4073332.5290337377,283.83447908753794,3039.741625766151,48.08371422724355,2.0055577701645486,0.0015971706525169012
1.843000000000001,5260.488878016117,7.269729459113008,4069888.249517912,283.79912738930284,3039.04291210569,47.968969291056354,2.007810104786767,0.0016317900915124887
1.8830000000000011,5254.320733599224,7.291861538732894,4066440.478538319,283.76371751931566,3038.34337044926,47.85428137039719,2.0100588766352026,0.0016663591150965459
1.9230000000000012,5248.153682811462,7.314028708547981,4062989.2043765006,283.72824925782726,3037.6429941715037,47.739650546396064,2.0123040785007986,0.001700877923553813
1.9630000000000012,5241.987656651264,7.336231178844858,4059534.415223365,283.69272238351607,3036.9417766556644,47.625076900444896,2.0145457031792495,0.00173534671549724
2.003000000000001,5235.794157616745,7.358469159999943,4056076.099178693,283.6571366734767,3036.2036273501853,47.510560514200016,2.0167837434703775,0.0017697656878859235
2.043000000000001,5229.567801838039,7.38074162995725,4052614.2442506314,283.62149190320855,3035.4203010328406,47.3961014695846,2.0190181921775237,0.001804135036042783
2.083000000000001,5223.344311111179,7.403048491646031,4049148.8389351787,283.58578785258146,3034.6361130564574,47.28169986677853,2.0212490417055706,0.0018384549508027568
2.123000000000001,5217.122251625618,7.425391833839901,4045679.8720681635,283.550024304322,3033.8509761792643,47.16735581952092,2.023476284167332,0.001872725619293616
2.163000000000001,5210.901891346688,7.447770791094473,4042207.331724591,283.51420103266304,3033.0649215460535,47.053069420993296,2.0256999121442676,0.0019069472303952775
2.203000000000001,5204.683118186792,7.470185792276331,4038731.2060537264,283.47831781193844,3032.277934493476,46.938840769776945,2.0279199181060905,0.001941119970611416
2.243000000000001,5198.465868478612,7.492637014353132,4035251.4830909697,283.44237441463815,3031.490008856386,46.824669964033575,2.030136294540164,0.001975244025014949
2.2830000000000013,5192.250078052427,7.515124660893335,4031768.1507811705,283.4063706116419,3030.701137654386,46.71055710224583,2.03234903393446,0.002009319577146373
2.3230000000000013,5186.035683472322,7.537648936373456,4028281.1969776093,283.37030617220205,3029.9106165450717,46.59650228320614,2.0345581287773014,0.002043346809031794
2.3630000000000013,5179.822673870195,7.560209995013262,4024790.609440876,283.33418086392555,3029.1171278364754,46.482505606000885,2.0367635715572123,0.0020773259012014595
2.4030000000000014,5173.6107117159645,7.582808358101835,4021296.3758613435,283.29799445299983,3028.32266499731,46.368567170718826,2.0389653547467503,0.002111257032593405
2.4430000000000014,5167.399465106887,7.605444375311873,4017798.4837003783,283.2617467025406,3027.527212086729,46.25468707360577,2.0411634709091158,0.0021451403813357484
2.4830000000000014,5161.188947601373,7.628118025674769,4014296.920190528,283.22543737258275,3026.7307703124075,46.14086540712347,2.0433579126958517,0.0021789761247495115
2.5230000000000015,5154.9784496086495,7.650829571141872,4010791.6725067766,283.189066221846,3025.932468930673,46.027102265224414,2.0455486727295833,0.0022127644385280987
2.5630000000000015,5148.724918405609,7.673579011607528,4007282.7277215915,283.1526330072626,3025.0736371473913,45.91339774199552,2.047735743633537,0.00224650549696707
2.6030000000000015,5142.484528138054,7.696353067254571,4003770.072902505,283.11613748498365,3024.2143943142,45.79975193464843,2.0499191179652954,0.0022801994725076945
2.6430000000000016,5136.241325149092,7.719176130381888,4000253.701241354,283.07957947411916,3023.353664467433,45.68616512965509,2.0520987841289653,0.002313846506458021
2.6830000000000016,5129.998891409013,7.742035679559609,3996733.597869578,283.0429587093259,3022.4919230246087,45.57263737121451,2.0542747358646163,0.0023474467770058585
2.7230000000000016,5123.756743021694,7.764934396204472,3993209.7496466385,283.00627494246174,3021.629073505943,45.45916875947453,2.0564469656829747,0.0023810004521986443
2.7630000000000017,5117.514809877928,7.78787226558784,3989682.143120212,282.9695279213847,3020.7651156848715,45.345759388468345,2.058615466230246,0.002414507699740658
2.8030000000000017,5111.273046064312,7.810849474990679,3986150.7647329425,282.9327173920942,3019.900043057295,45.232409352427034,2.060780230148851,0.0024479686860121056
2.8430000000000017,5105.031386928839,7.833866246400305,3982615.6008338863,282.8958430988425,3019.033847662897,45.11911874614887,2.062941250068882,0.002481383576024804
2.883000000000002,5098.789772095006,7.856922786935291,3979076.637668214,282.8589047840198,3018.1665221122007,45.00588766471155,2.0650985186139583,0.0025147525334808444
2.923000000000002,5092.548141071416,7.880019306591529,3975533.861378557,282.82190218816055,3017.2980589255194,44.892716203536345,2.067252028399365,0.0025480757207757836
2.963000000000002,5086.306433606081,7.903156015391784,3971987.258004082,282.78483504992596,3016.4284506332538,44.77960445838537,2.0694017720316675,0.0025813532990121763
3.003000000000002,5080.06458973066,7.926333123536385,3968436.813479805,282.7477031060885,3015.55768977164,44.66655252536425,2.071547742108203,0.0026145854280120707
3.043000000000002,5073.822549730739,7.949550841463814,3964882.513635812,282.71050609151627,3014.6857688802493,44.55356050092564,2.073689931216569,0.0026477722663292057
3.083000000000002,5067.551985582993,7.972809379837439,3961324.3441965836,282.6732437391573,3013.773138276563,44.44062848187241,2.0758283319341095,0.002680913971261095
3.123000000000002,5061.294063527919,7.996089312561443,3957762.2907802067,282.63591578002325,3012.8544524468716,44.32775656536087,2.077962936827413,0.002714010698860932
3.163000000000002,5055.034441179007,8.019421785131852,3954196.347675639,282.59852203525367,3011.934114452592,44.214945110131524,2.080093732803205,0.002747062563311017
3.203000000000002,5048.774520054799,8.042794738482955,3950626.499626231,282.5610622251997,3011.012570210903,44.10219419321168,2.0822207128757544,0.0027800697215646913
3.243000000000002,5042.514480314199,8.066208937957459,3947052.7320078234,282.52353607599457,3010.0897965124277,43.98950391410033,2.0843438695680763,0.002813032325919365
3.283000000000002,5036.25415988596,8.089664852670419,3943475.0302115516,282.48594331308385,3009.1657748485886,43.87687437634177,2.0864631953114046,0.002845950526902997
3.323000000000002,5029.993534227264,8.113162611575245,3939893.379466018,282.4482836593506,3008.2389181107783,43.764305682262886,2.08857868255848,0.002878824474104165
3.363000000000002,5023.731773922291,8.136703341828738,3936307.7648989614,282.410556835754,3007.309559718636,43.65179793483421,2.090690323742944,0.0029116543158941408
3.4030000000000022,5017.468965747682,8.160286624426298,3932718.1711262944,282.3727625569926,3006.3789180999765,43.53935122558305,2.092798111538397,0.0029444402013090887
3.4430000000000023,5011.205564654478,8.183912158178185,3929124.582730634,282.3349005365244,3005.447012142329,43.42696564879746,2.0949020385519153,0.002977182277856652
3.4830000000000023,5004.941386871262,8.207580607812744,3925526.9844479407,282.29697048852915,3004.5138161415525,43.31464130702022,2.097002097206332,0.003009880690679781
3.5230000000000024,4998.676388547378,8.231292095764804,3921925.360834525,282.25897212439446,3003.579325732277,43.202378301246085,2.0990982799504923,0.003042535584086368
3.5630000000000024,4992.409991057386,8.255046841554124,3918319.6963385954,282.2209051534597,3002.642818891808,43.09017673306254,2.101190579212881,0.0030751471012284916
3.6030000000000024,4986.118869311253,8.278844502944727,3914709.9752931623,282.18276928293193,3001.6718627037935,42.978036704469204,2.103278987405097,0.0031077153841410007
3.6430000000000025,4979.848333043108,8.30266012641341,3911096.182157915,282.14456422043475,3000.700846807447,42.86595832496873,2.1053634967704014,0.0031402405726600013
3.6830000000000025,4973.572060976572,8.326538221096408,3907478.312389436,282.1062897890459,2999.727710838152,42.75394202830741,2.1074440926452542,0.0031727227556981835
3.7230000000000025,4967.295444588363,8.350456616510685,3903856.347540632,282.06794566399077,2998.753351992654,42.64198784540483,2.1095207689521813,0.003205162083257693
3.7630000000000026,4961.018020232678,8.374419286327846,3900230.271891307,282.0295315483739,2997.777618819757,42.53009589072538,2.1115935178233314,0.0032375586914533704
