time,thrust,OF,ox_tank.pressure,ox_tank.temperature,combustion_chamber.temperature,propellant_mass,propellant_CG,combustion_chamber.fuel_grain.geometry.length_regressed
0.007,246.99669299712093,4.633439196879545,5038289.7372152265,292.9594658113062,2859.9646736372733,55.867664264373154,1.8427015756380085,1.5015985971445355e-05
0.014,1180.4860686641684,4.371781390115725,5037065.188465467,292.94876326881024,2957.9169620318457,55.829787870388806,1.843488079050471,2.9961037522173817e-05
0.021,2462.819650757816,4.305431650755779,5035915.826512784,292.93871604085643,2980.983008843746,55.79415047926217,1.8442232290539124,4.421551578128244e-05
0.028,3505.2093789157157,4.254888311142755,5034836.767094361,292.92928176533735,2985.799985425876,55.76060979661639,1.8449105413264677,5.781449241079109e-05
0.035,4318.705646373631,4.215843480513042,5033819.916214824,292.9203899620469,2985.8433918498954,55.72892791438061,1.845555652873468,7.082418667288749e-05
0.042,4969.753531715358,4.187154629415559,5032856.510156671,292.9119642324945,2984.6783478423527,55.69884619772293,1.8461645990876094,8.331972590963798e-05
0.049,5461.499281392367,4.16742769851169,5031937.890840192,292.90392904459355,2983.6854713046787,55.67010826957278,1.8467432947173532,9.537797621898433e-05
0.056,5841.883641798821,4.154958758494421,5031055.977912165,292.8962138691865,2983.2981653061674,55.64247416756271,1.8472972245658843,0.00010707273080211309
0.063,6126.660865555105,4.147947890406731,5030203.565143315,292.8887557814339,2983.516297681305,55.615729364867455,1.8478312546810176,0.00011847132658941514
0.07,6344.787755272398,4.144990046963813,5029374.475484764,292.88150082606154,2984.2527107820183,55.589689603786034,1.8483495385558883,0.00012963255372294837
0.07700000000000001,6509.497153658232,4.144686995869058,5028563.548087307,292.8744039118035,2985.311772262282,55.5642006917119,1.8488555342211561,0.00014060625717491362
0.08400000000000002,6631.654808551684,4.1461637064334065,5027766.608881539,292.8674285609547,2986.5711999168825,55.53913776350426,1.8493520306987006,0.0001514332112757238
0.09100000000000003,6722.703572204004,4.148788693478792,5026980.342189896,292.8605457916835,2987.9372685764056,55.51440154025754,1.849841238367581,0.00016214608922552633
0.09800000000000003,6790.331350661013,4.152132612250883,5026202.1550755985,292.8537329354902,2989.3456598724524,55.48991433175334,1.8503248825398675,0.000172770611649017
0.10500000000000004,6840.388948785817,4.155924676355588,5025430.046121266,292.8469724923158,2990.7653838327396,55.46561614365167,1.850804292867201,0.0001833267297381972
0.11200000000000004,6877.302184139069,4.159995294232281,5024662.485327705,292.8402510820403,2992.179763675199,55.441461099557955,1.8512804844872595,0.00019382975091876883
0.11900000000000005,6904.402881299901,4.164239892711459,5023898.311682494,292.8335585498921,2993.5784936733107,55.41741438145953,1.8517542268603981,0.00020429132191862639
0.12600000000000006,6924.18952747919,4.16859441884907,5023136.649077388,292.8268872318895,2994.959656015594,55.393449713860235,1.852226100059606,0.00021472024858123237
0.13300000000000006,6938.53067206141,4.173019493836377,5022376.839152477,292.8202313680181,2996.326283213952,55.36954735206422,1.852696539601911,0.00022512315774736872
0.14000000000000007,6948.821311778974,4.17749071277408,5021618.388730072,292.8135866428039,2997.6801745507823,55.345692506308986,1.8531658714651522,0.00023550501922523157
0.14700000000000008,6956.1010909290435,4.181992844184818,5020860.929246418,292.80694983068577,2999.0235395655195,55.32187412499951,1.8536343390671866,0.00024586955071458105
0.15400000000000008,6961.143954420768,4.186516204757033,5020104.185746644,292.80031852494153,3000.358515109646,55.298083964510354,1.8541021238575737,0.0002562195283834005
0.1610000000000001,6964.525573215485,4.191054526462106,5019347.95337703,292.7936909321325,3001.686972207474,55.27431588382628,1.854569360912711,0.0002665570229105459
0.1680000000000001,6966.673877118146,4.195603673253654,5018592.079660534,292.7870657170963,3003.0104622086283,55.25056531269565,1.8550361506834079,0.0002768835777380693
0.1750000000000001,6967.906828302217,4.20016086328125,5017836.451187408,292.78044188653604,3004.3302292282533,55.22682885228524,1.8555025678090593,0.00028720034304960515
0.1820000000000001,6968.460602764206,4.204724191646988,5017080.983651371,292.7738187018603,3005.647249565226,55.20310397624761,1.8559686677115528,0.0002975081761227633
0.1890000000000001,6968.510585547032,4.209292332856638,5016325.614406833,292.76719561406867,3006.9622781833764,55.17938880746072,1.8564344915175393,0.00030780771630301474
0.22900000000000012,6968.186995792848,4.213864351810527,5015570.296918669,292.760572215188,3008.2758929804004,55.155681951562876,1.8569000697269737,0.00031809944091161507
0.26900000000000013,6959.116392337876,4.221503700493618,5011248.17534064,292.72265669787646,3010.412443696237,55.02027562977055,1.8595576589395644,0.0003768191366840075
0.3090000000000001,6948.76714817421,4.24830925645254,5006922.424210448,292.6846842243297,3018.053511560816,54.88498246133923,1.8622106796231304,0.00043533782932397494
0.3490000000000001,6942.114024751267,4.2730505695708105,5002592.7015312705,292.6466516921263,3025.1242948740987,54.74979220433049,1.8648593232192816,0.0004936606877941558
0.38900000000000007,6933.388391924412,4.300277555318911,4998260.911361496,292.6085757396779,3032.893366291811,54.614761207939644,1.8675023268961748,0.0005517708039512383
0.42900000000000005,6926.13176158894,4.326041798069228,4993925.975280131,292.5704468077944,3040.2502680168154,54.479857295327335,1.8701403645788701,0.0006096806277855415
0.46900000000000003,6919.521258726487,4.352864065163568,4989588.628228813,292.53227127758356,3046.0724600518024,54.345102035658556,1.8727729368820116,0.0006673847942590249
0.509,6912.401975202443,4.37975841021536,4985248.396028625,292.4940448943141,3051.736015752055,54.21048123280278,1.8754003253675002,0.0007248897167915538
0.549,6905.522509849182,4.406320206258379,4980904.91201918,292.455764339778,3057.328497148577,54.07598395292749,1.8780227398813447,0.0007822006660461493
0.5890000000000001,6898.5471520942265,4.433095595446964,4976558.290941579,292.4174305338609,3062.963421232621,53.94161348683596,1.8806400809581927,0.0008393182078784687
0.6290000000000001,6891.694366722462,4.459822129814208,4972208.4594356045,292.37904273829514,3068.586738350537,53.80736759572609,1.8832523699125816,0.0008962446941522613
0.6690000000000002,6884.832497421525,4.486665683658384,4967855.465476045,292.3406012846642,3074.231266350103,53.6732476190018,1.885859550878469,0.0009529812830210289
0.7090000000000002,6878.039634511361,4.513527049975575,4963499.283850449,292.30210585842866,3079.877834411263,53.53925275651987,1.888461614931894,0.0010095298060720072
0.7490000000000002,6871.268089011638,4.540467087916672,4959139.932985033,292.2635565301827,3085.539070902864,53.40538349689536,1.8910585257348604,0.0010658916524875165
0.7890000000000003,6864.545714274942,4.567449917945832,4954777.40475818,292.2249531356705,3091.2076070192043,53.27163956071847,1.8936502640714419,0.001122068437608199
0.8290000000000003,6857.85481431638,4.594498276560912,4950411.706732017,292.1862956490737,3096.8881234381884,53.13802113589199,1.8962368011109314,0.0011780616031823168
0.8690000000000003,6851.205132159437,4.621599325196618,4946042.8366422355,292.1475839573618,3102.577991046226,53.00452813228471,1.8988181145007805,0.0012338726587242945
0.9090000000000004,6847.312701808502,4.648761786359951,4941670.797791499,292.10881799653316,3107.0867029933675,52.871160630510474,1.9013941786697397,0.0012895030372919065
0.9490000000000004,6844.225365015097,4.676342186754696,4937295.58977701,292.06999766948064,3111.0874770024343,52.737918611746366,1.9039649706401574,0.0013449541828244533
0.9890000000000004,6841.191854530785,4.703711204480465,4932916.875566626,292.03111988890777,3115.0554338540896,52.60479232576207,1.9065306765582093,0.0014002306170242116
1.0290000000000004,6838.217518423694,4.731168287810259,4928534.664394108,291.9921846366457,3119.0343701144734,52.47178209446808,1.909091266222836,0.0014553336122360126
1.0690000000000004,6835.339887037829,4.758666752292026,4924148.939155968,291.9531916601817,3123.0178285306715,52.33888748634102,1.9116467259915058,0.0015102646610853664
1.1090000000000004,6832.541217597542,4.786241241277883,4919759.70740092,291.91414092566555,3127.0106887070847,52.20610879056859,1.9141970271754434,0.0015650250079731135
1.1490000000000005,6829.832296137252,4.813873649499538,4915366.963151432,291.87503227863556,3131.0104129356014,52.073445913565806,1.916742149671057,0.0016196160002078682
1.1890000000000005,6827.207965039617,4.841575119474219,4910970.707710245,291.8358656290368,3135.018569945547,51.94089897915263,1.9192820691093997,0.001674038898080758
1.2290000000000005,6824.671952115739,4.869340340152184,4906570.937994942,291.79664084740585,3139.0344191000772,51.80846799237796,1.9218167640303396,0.001728294981567673
1.2690000000000006,6822.223113362593,4.897173225938466,4902167.653055633,291.75735782290184,3143.058513578164,51.67615302685914,1.924346211875586,0.0017823854915582436
1.3090000000000006,6819.863049341011,4.92507252502296,4897760.850446421,291.71801643096484,3147.0906821186068,51.54395412046113,1.9268703912032608,0.0018363116630451418
1.3490000000000006,6810.60214378135,4.953039874290138,4893350.528251145,291.6786165513721,3150.0635323421698,51.411871333263306,1.929389280445479,0.0018900747072485879
1.3890000000000007,6797.28841986714,4.982039934699172,4888936.683962504,291.6391580582285,3152.743556160161,51.27990471535966,1.9319028585844533,0.0019436758220343416
1.4290000000000007,6784.311106649257,5.010322708708432,4884518.458017542,291.5996331554775,3155.353566959737,51.14802995209473,1.9344116199433077,0.001997123752845057
1.4690000000000007,6771.333255014015,5.03878855412784,4880095.922819423,291.560042371346,3157.97770172574,51.01624935010837,1.9369154944349811,0.0020504189154352337
1.5090000000000008,6758.469774467823,5.067283240099405,4875669.035316391,291.520385200807,3160.603271876887,50.884561936304934,1.939414481660604,0.002103562730705
1.5490000000000008,6745.669063253067,5.095877096406419,4871237.804484672,291.48066160391403,3163.2365413620755,50.752968223706816,1.9419085501045754,0.0021565561439516644
1.5890000000000009,6732.952617899947,5.124540049291281,4866802.216182221,291.4408713330663,3165.8748339207473,50.62146807627508,1.9443976822276257,0.0022094002872203233
1.629000000000001,6720.30987828438,5.153286374658175,4862362.26614861,291.4010142286268,3168.519419022704,50.49006164494322,1.9468818547154685,0.002262096189972394
1.669000000000001,6707.74432797011,5.182110748890296,4857917.945470212,291.3610900886132,3171.16982297249,50.35874895589189,1.9493610471448883,0.002314644906440217
1.709000000000001,6695.253345906502,5.21101648178116,4853469.246963419,291.32109872595066,3173.8263393876496,50.227530090976124,1.9518352381815562,0.0023670474603020653
1.749000000000001,6684.815803578139,5.240003097685841,4849016.162386234,291.28103994343047,3176.2706528105427,50.09640510893688,1.954304407228591,0.002419304869141346
1.789000000000001,6682.561722221439,5.269138207732123,4844558.683656479,291.2409135446438,3177.8212301733506,49.965374079674554,1.9567685337011602,0.002471418134174108
1.829000000000001,6680.103300990653,5.298555591541201,4840096.7459627455,291.2007188213265,3179.3821904207316,49.834435492146255,1.9592276302093774,0.002523388724061871
1.869000000000001,6677.855322979428,5.327774058481637,4835630.131190605,291.160453680669,3180.9325158937854,49.70358356901657,1.9616817982113015,0.002575219383875984
1.9090000000000011,6675.698548161576,5.35719465384125,4831158.916432591,291.12011868788215,3182.492399980271,49.57282081155178,1.9641309666175766,0.002626910327713656
1.9490000000000012,6673.681281454893,5.386655667600716,4826683.057599257,291.0797133153296,3184.0536764825374,49.44214633719507,1.9665751350781984,0.0026784627852825486
1.9890000000000012,6671.7880790625795,5.416221916026401,4822202.55803586,291.0392374624518,3185.6196164981634,49.31156059485811,1.9690142757455011,0.002729877571186746
2.0290000000000012,6670.02803319189,5.445868954100909,4817717.40223329,290.9986908577984,3187.1889843824447,49.18106351409646,1.9714483717705975,0.002781155645608657
2.0690000000000013,6668.401007365687,5.475607313513246,4813227.581733026,290.9580732928561,3188.762310128777,49.05065522716065,1.9738774022990464,0.002832297896309175
2.1090000000000013,6666.910684102646,5.5054338945578225,4808733.085057638,290.9173845310789,3190.3375433512506,48.92033578872304,1.9763013482790224,0.0028833052233425576
2.1490000000000014,6665.559228833611,5.535350900563072,4804233.901608132,290.8766243431075,3191.9160285751673,48.79010528412551,1.9787201902140505,0.0029341785066704065
2.1890000000000014,6657.921015380247,5.565358311339677,4799730.020156152,290.83579249311913,3192.691098189817,48.65996378751719,1.9811339090236026,0.0029849186189192874
2.2290000000000014,6649.4238901663875,5.595934355478956,4795221.429563201,290.79488874533047,3193.4446764981367,48.529911381716545,1.9835424856283004,0.00303552641961777
2.2690000000000015,6641.161431314199,5.626092390037231,4790707.732757072,290.7539093580728,3194.1884438026195,48.39993754851721,1.9859461185243987,0.003086005905438884
2.3090000000000015,6632.852799075903,5.656519693365719,4786189.049189561,290.7128552733463,3194.938150649859,48.270046018784626,1.9883447132833654,0.00313635681545749
2.3490000000000015,6624.586825218154,5.6869875391670925,4781665.322956713,290.6717258408434,3195.6885007559104,48.140235702023965,1.9907382746634952,0.003186580313470513
2.3890000000000016,6616.335321127848,5.717569980316513,4777136.553930319,290.6305209159238,3196.44121038849,48.010507047136905,1.99312677600645,0.003236677096551099
2.4290000000000016,6608.1066470428195,5.748244734233977,4772602.724177165,290.5892401912368,3197.195759350947,47.88086002074133,1.9955102006794347,0.003286647995239544
2.4690000000000016,6599.897863325369,5.779019749262336,4768063.821016844,290.5478834063023,3197.952330157892,47.75129473963487,1.9978885291242323,0.0033364937863557846
2.5090000000000017,6591.7095007203,5.809893584035488,4763519.829868532,290.5064502824302,3198.710886774425,47.62181127488782,2.000261742856873,0.0033862152510667743
2.5490000000000017,6582.92005783689,5.840867694878204,4758970.736451807,290.46494054274206,3199.4221699325153,47.492409711996004,2.0026298232357824,0.0034358131572873162
2.5890000000000017,6567.043845208404,5.871969154270961,4754416.526116379,290.42335390605285,3199.5680738516753,47.363090132574236,2.004992751830547,0.0034852882652165254
2.629000000000002,6550.861083847504,5.903449706914595,4749857.163428972,290.38168990024815,3199.7114194227534,47.23385206171712,2.007350521591207,0.003534641488678801
2.669000000000002,6535.027486959546,5.934713212401228,4745292.403453152,290.3399461351484,3199.8542658325996,47.10468937193714,2.009703239627361,0.003583875377437163
2.709000000000002,6519.277536629844,5.966187007820547,4740722.310907966,290.2981230482924,3199.997943337976,46.97560433918128,2.0120508429917576,0.003632990016952979
2.749000000000002,6503.682376606322,5.997738988301552,4736146.847514299,290.25622013474236,3200.1401194067093,46.84659645646419,2.0143933251315547,0.0036819862965840745
2.789000000000002,6488.221200198924,6.029404971268141,4731566.0018384075,290.2142371340667,3200.2816298949683,46.71766594897929,2.0167306648161616,0.003730864884353109
2.829000000000002,6472.896887377771,6.061176654422738,4726979.755217776,290.17217371860494,3200.423546427093,46.58881285318236,2.0190628447228316,0.003779626495200357
2.869000000000002,6457.70704954339,6.093056786051828,4722388.090609245,290.1300295744597,3200.565884301479,46.460037255518856,2.0213898466219256,0.003828271821736097
2.909000000000002,6442.649852459077,6.125046123910926,4717790.990638468,290.0878043836222,3200.7086434861544,46.33133923981997,2.0237116524329055,0.0038768015496413884
2.949000000000002,6430.023898511266,6.157145482875752,4713188.437689003,290.0454978247744,3200.6151340848187,46.202718889711385,2.0260282441721396,0.0039252163570869655
2.989000000000002,6419.411106348635,6.189470942958946,4708580.41392799,290.00310957351024,3200.3008813593488,46.07417628930639,2.0283396039354264,0.003973516914649698
3.029000000000002,6408.734715519734,6.221893331019268,4703966.8152224915,289.9606385095735,3199.984631781559,45.94570923208215,2.0306457594587832,0.0040217045413959915
3.069000000000002,6398.11509760142,6.254353214397818,4699347.57185168,289.9180838263626,3199.6684109753423,45.81731644791753,2.03294671965935,0.004069780276747324
3.109000000000002,6387.508494849131,6.286953189089163,4694722.684114874,289.8754453604972,3199.351072399278,45.68899853958331,2.0352424562275138,0.004117744615951366
3.1490000000000022,6376.924558883097,6.31966308142909,4690092.128028019,289.832722723825,3199.0329046333904,45.5607554697093,2.037532953661963,0.0041655982306791255
3.1890000000000023,6366.361382905216,6.352490302652408,4685455.884721218,289.78991557411155,3198.713840572028,45.43258734334007,2.0398181937012314,0.004213341745028283
3.2290000000000023,6355.818924240524,6.385434730945503,4680813.934202785,289.74702355756773,3198.3938779381097,45.30449424218497,2.0420981586126588,0.004260975783022191
3.2690000000000023,6345.296950774457,6.4184973633657965,4676166.256341265,289.7040463178874,3198.0730060170213,45.17647625070427,2.0443728306716813,0.004308500961261251
3.3090000000000024,6338.160596691359,6.451679111279833,4671512.830768272,289.6609834953358,3197.6573778802285,45.048533453550625,2.0466421922093097,0.0043559178897511625
3.3490000000000024,6339.9443692557215,6.485019665734847,4666853.636874131,289.61783472669345,3196.995883567226,44.920665935475235,2.0489062256107857,0.004403227172025893
3.3890000000000025,6342.014419846732,6.5185421456393895,4662188.625849685,289.5745993860251,3196.327148113396,44.79287304886054,2.0511649276519517,0.004450429611615164
3.4290000000000025,6344.469855518171,6.552095666770333,4657517.712514787,289.5312765078599,3195.658059832314,44.66515320651674,2.0534183134168162,0.00449752626860877
3.4690000000000025,6347.330816777661,6.585796879427111,4652840.894146342,289.4878658892851,3194.9865472470933,44.537506992298574,2.055666355450559,0.004544517584087827
3.5090000000000026,6350.610283352631,6.619618624462843,4648158.145443449,289.4443671167876,3194.3131215964117,44.40993440472347,2.0579090378078324,0.004591404158140356
3.5490000000000026,6354.327406472925,6.653566007119222,4643469.44456163,289.4007798075608,3193.637692912962,44.28243553942802,2.0601463426826094,0.004638186557557907
3.5890000000000026,6358.501037415353,6.687639839512241,4638774.769167639,289.3571035729012,3192.9602424548816,44.15501048589115,2.0623782524259116,0.004684865345005355
3.6290000000000027,6363.1512948144955,6.721840966876516,4634074.096606724,289.31333801974046,3192.280753543246,44.02765933185554,2.0646047494561452,0.004731441077856385
3.6690000000000027,6361.396679326749,6.756170403023249,4629367.404005804,289.2694827515869,3191.513232672976,43.900382166045716,2.0668258162033166,0.004777914307514517
3.7090000000000027,6346.493171941324,6.790654997678787,4624654.668234809,289.2255373681487,3190.5760575172058,43.773179077194385,2.069041435125086,0.004824285579766378
3.7490000000000028,6331.607829689881,6.825294062381652,4619935.84788792,289.1815012970994,3189.634744949341,43.64604968954284,2.071251597648211,0.004870555563738882
3.789000000000003,6316.814024452555,6.860020380886298,4615210.889447688,289.13737385099904,3188.6917803440037,43.51899332571425,2.0734563009510714,0.004916725005780679
3.829000000000003,6302.0855835877655,6.894891191696224,4610479.777841556,289.0931546995503,3187.7455882288295,43.39201030817953,2.075655522939318,0.004962794368952717
