time,thrust,OF,ox_tank.pressure,ox_tank.temperature,combustion_chamber.temperature,propellant_mass,propellant_CG,combustion_chamber.fuel_grain.geometry.length_regressed
0.007,233.94069698342014,11.048165875383198,4221830.271272671,285.3378696334538,2841.56600326685,56.11696257783071,1.8785252241051773,5.3013356716755e-06
0.014,772.4806180113161,10.45735441057204,4220918.593912359,285.3287612395788,2987.7475911098873,56.08510352058917,1.879277468128443,1.0586648352047563e-05
0.021,1776.495327725928,10.159129178909248,4220058.253095573,285.3201643898238,3044.8127047515454,56.05498483368118,1.8799853949709202,1.571908766164975e-05
0.028,2612.876829393183,9.895070917556678,4219246.612826999,285.3120529727055,3081.3725927842415,56.0265179540619,1.880651374349284,2.0702366167479878e-05
0.035,3288.0837144485586,9.66230333462567,4218479.040100392,285.3043808866689,3107.915211267221,55.999546923054325,1.8812794626935836,2.554680965304735e-05
0.042,3856.63753286387,9.461570900204347,4217750.405321865,285.297097029494,3128.1809123470894,55.973898854177364,1.881874117472064,3.0265215015422983e-05
0.049,4280.4800286422005,9.292287984845546,4217055.473827911,285.2901492132107,3143.887990249184,55.94939709808012,1.8824398633114627,3.4871727986419545e-05
0.056,4617.41520913561,9.152438965953362,4216389.165243556,285.2834867602447,3156.1586589410945,55.92586999978056,1.882981072979895,3.938097710263896e-05
0.063,4896.247645845123,9.03908654562223,4215746.7473064475,285.27706244554895,3165.6972777225524,55.90315748065399,1.883501805548648,4.380731133147658e-05
0.07,5115.09772321479,8.948660645696425,4215123.958262725,285.27083372504825,3173.106985444456,55.88111522768833,1.8840057059546604,4.816421310814164e-05
0.07700000000000001,5285.8629646793715,8.877559810977388,4214517.077525332,285.26476344675933,3178.846793487736,55.85961713982717,1.8844959486278188,5.2463866240209665e-05
0.08400000000000002,5418.417566911646,8.822331786059664,4213922.936211331,285.2588199603745,3183.235641600226,55.83855573478849,1.8849752317943471,5.6716942425666386e-05
0.09100000000000003,5520.890221307026,8.77988968102119,4213338.89378443,285.2529768873513,3186.588704532432,55.81784139757669,1.8854457999750869,6.0932535796299444e-05
0.09800000000000003,5599.826042360611,8.747615027994764,4212762.789977658,285.2472126431727,3189.13370366257,55.79740077939651,1.88590948681775,6.511822006232846e-05
0.10500000000000004,5660.428491662522,8.723343856303023,4212192.882626367,285.24150981807657,3191.0694862200926,55.77717470811882,1.8863677692839282,6.928018937281544e-05
0.11200000000000004,5706.814014636517,8.705317421672975,4211627.782759274,285.2358545297996,3192.513521706621,55.75711599738643,1.8868218236816616,7.342343654870343e-05
0.11900000000000005,5742.20917965384,8.692140172308719,4211066.393550971,285.2302358144721,3193.592972154838,55.73718738090299,1.8872725780688573,7.755193789319364e-05
0.12600000000000006,5769.13241522249,8.682709840812985,4210507.855093112,285.22464507532277,3194.390572439215,55.71735964049064,1.8877207594674223,8.16688312773328e-05
0.13300000000000006,5789.538401631277,8.676167244935193,4209951.497242677,285.2190756118707,3194.970876863191,55.69761000612772,1.8881669340625846,8.577657436465682e-05
0.14000000000000007,5804.938778547352,8.671845485505735,4209396.800086992,285.21352222507073,3195.384019571797,55.67792081342785,1.8886115408352557,8.987708112631715e-05
0.14700000000000008,5816.499267529433,8.669229036818773,4208843.361666768,285.20798089488267,3195.6675765568025,55.658278407026955,1.8890549189750245,9.39718355569844e-05
0.15400000000000008,5825.117184611423,8.667920187857618,4208290.872048451,285.2024485212232,3195.8507550759455,55.63867225940069,1.8894973298718685,9.806198436344564e-05
0.1610000000000001,5831.482067430134,8.667613021347035,4207739.092771618,285.1969227185897,3195.9593119411174,55.619094272217694,1.8899389745304065,0.00010214841122676904
0.1680000000000001,5836.1222423062045,8.668073612405925,4207187.84067605,285.1914016544269,3196.0106933451793,55.59953822651987,1.8903800072609223,0.00010623179570415496
0.1750000000000001,5839.442691867161,8.669122059761504,4206636.975200041,285.18588392216765,3196.018303125917,55.5799993509068,1.8908205464231675,0.00011031265976349217
0.1820000000000001,5841.753621697079,8.670620473713926,4206086.388570234,285.1803684431648,3195.992415680402,55.56047398802897,1.891260682719109,0.00011439140387812457
0.1890000000000001,5843.292505211278,8.672463234164065,4205535.998209167,285.1748543907846,3195.940900929126,55.54095933649357,1.8917004856071633,0.00011846833505141962
0.19600000000000012,5844.241058132279,8.674569476017622,4204985.740876504,285.1693411318255,3195.8697838357953,55.52145325172228,1.892140008249172,0.00012254368849329655
0.20300000000000012,5844.738284758231,8.676877308297643,4204435.56815821,285.1638281814109,3195.7836750939564,55.50195409264938,1.8925792913172041,0.00012661764433768562
0.21000000000000013,5844.890491029993,8.679339374042208,4203885.44299972,285.15831516831753,3195.686102059545,55.4824606039152,1.893018365918016,0.00013069034050681752
0.2500000000000001,5844.7789614084395,8.681919443995122,4203335.337044881,285.15280180835975,3195.5797626983313,55.46297182545697,1.8934572558367204,0.00013476188259375395
0.2900000000000001,5838.530644583415,8.687931099281643,4200187.065707858,285.12123831854717,3195.2416723586903,55.351635129671024,1.8959634674297798,0.00015800996996944523
0.33000000000000007,5833.937978986398,8.703157921983069,4197036.038372759,285.0896294854207,3194.5548892913803,55.24033842071968,1.8984664623262915,0.00018123288646648662
0.37000000000000005,5828.152988998441,8.721043319433232,4193883.049384499,285.05798321557074,3193.7424632303196,55.129108795196714,1.900965571692766,0.00020442775124447228
0.41000000000000003,5822.654560380146,8.737790348638224,4190727.5310364184,285.0262937510106,3192.9806720844736,55.017927457194006,1.9034612595143101,0.00022759670278495983
0.45,5817.118567773183,8.754777368747177,4187569.6095201876,284.99456229515096,3192.208737846396,54.906798989540235,1.9059534127642748,0.0002507393219964754
0.49,5811.582348797247,8.771747036395118,4184409.259765736,284.9627885328821,3191.4372299956717,54.79572288485029,1.9084420439663663,0.000273855745827638
0.53,5806.048223054102,8.788720120382203,4181246.473930063,284.9309723216901,3190.6642305825153,54.68469921681621,1.9109271513197648,0.00029694604726249597
0.5700000000000001,5800.515625166536,8.805698975856838,4178081.245297058,284.8991135300458,3189.891177866144,54.573728098371035,1.9134087320610556,0.0003200102945563263
0.6100000000000001,5794.982376250585,8.82268611723661,4174913.5668553016,284.86721202310844,3189.1179365809453,54.462809633964056,1.915886783638544,0.0003430485564480258
0.6500000000000001,5789.449103467049,8.839679291459836,4171743.430529585,284.83526765496987,3188.344607769627,54.35194389399052,1.9183613043373315,0.0003660609049409536
0.6900000000000002,5783.915672787986,8.856679098467703,4168570.8285132754,284.8032802820596,3187.5711651695447,54.241130959396465,1.9208322921839807,0.00038904741044608955
0.7300000000000002,5778.3706352812615,8.87368549286204,4165395.7529091327,284.77124975952654,3186.7852972054256,54.130370909674326,1.9232997452410556,0.00041200814309338914
0.7700000000000002,5772.84201530384,8.89067435119883,4162218.195780993,284.7391759417565,3185.9990363058705,54.019663824600464,1.92576366156442,0.0004349431725462363
0.8100000000000003,5767.310164275876,8.907685854032081,4159038.1578080547,284.7070587697994,3185.211955461087,53.90901007148538,1.928224032195881,0.00045785253685253125
0.8500000000000003,5761.7782453579775,8.924701764748681,4155855.6295735785,284.6748980824774,3184.42485648305,53.79840968313347,1.9306808563564524,0.0004807363099739992
0.8900000000000003,5756.2461342672495,8.941724327465172,4152670.6031161863,284.64269373292257,3183.6376448918318,53.68786274236399,1.933134132045014,0.0005035945600151607
0.9300000000000004,5750.7137068675165,8.958753642543886,4149483.0703910436,284.61044557304473,3182.850314771157,53.57736933082839,1.935583857289015,0.0005264273547856388
0.9700000000000004,5745.1809674109045,8.975789629826137,4146293.0232644263,284.5781534534723,3182.0628696174135,53.466929528850784,1.9380300301481408,0.0005492347618203643
1.0100000000000005,5739.647883199875,8.99283234502619,4143100.4535752293,284.545817224171,3181.2753067557637,53.35654341747591,1.9404726486643264,0.0005720168481610499
1.0500000000000005,5734.114427253911,9.009881811166418,4139905.3531170315,284.5134367342598,3180.487624950448,53.2462110778865,1.9429117108759035,0.0005947736804227192
1.0900000000000005,5728.580572500548,9.02693805483872,4136707.713640499,284.481011832032,3179.6998228191105,53.13593259149317,1.9453472148153226,0.0006175053247873301
1.1300000000000006,5723.046291768475,9.044001102383335,4133507.526853038,284.44854236494865,3178.9118989904628,53.025708039933875,1.947779158509123,0.0006402118470071746
1.1700000000000006,5717.51155801562,9.061070979558195,4130304.784418459,284.4160281796323,3178.1238521213813,52.91553750507281,1.9502075399778864,0.0006628933124082805
1.2100000000000006,5711.976344261901,9.07814771178401,4127099.477956682,284.3834691218607,3177.3356808857607,52.80542106900316,1.9526323572361128,0.0006855497858933835
1.2500000000000007,5706.440623597458,9.095231324086233,4123891.5990434852,284.35086503656123,3176.547383977016,52.69535881404872,1.9550536082921284,0.0007081813319449761
1.2900000000000007,5700.904369180814,9.112321841101071,4120681.1392102116,284.3182157678049,3175.7589601077975,52.58535082276572,1.957471291147972,0.0007307880146283057
1.3300000000000007,5695.367554236977,9.129419287075189,4117468.0899434825,284.2855211587999,3174.9704080099627,52.47539717794462,1.9598854037992963,0.0007533698975943407
1.3700000000000008,5689.830152055967,9.14652368586456,4114252.4426848786,284.2527810518857,3174.1817264345873,52.36549796261197,1.9622959442352819,0.0007759270440827019
1.4100000000000008,5684.725348069668,9.163635060933672,4111034.1888306905,284.2199952885267,3173.391229330356,52.25565326003219,1.9647029104385256,0.0007984595169245634
1.4500000000000008,5681.646667742524,9.180748366265952,4107813.3197315955,284.1871637093063,3172.593033139433,52.14586315370945,1.9671063003849425,0.0008209673785455191
1.4900000000000009,5678.596271434501,9.19784903930943,4104589.828475715,284.15428617211427,3171.795763426214,52.036127785321035,1.9695061106537692,0.0008434506847537665
1.530000000000001,5675.559224751517,9.214974256843867,4101363.7141210204,284.12136259540324,3170.9975603209923,51.92644749166463,1.9719023331519494,0.0008659094700814765
1.570000000000001,5672.537823045892,9.232102286285011,4098134.9656344336,284.0883927943145,3170.1994115395605,51.81682228302188,1.9742949676276018,0.0008883438037462696
1.610000000000001,5669.532157979173,9.249237826888862,4094903.574536494,284.05537660960624,3169.401110065368,51.70725225444343,1.9766840117929774,0.0009107537454992569
1.650000000000001,5666.542371505117,9.266380441314693,4091669.5319643253,284.02231387769353,3168.6007352261736,51.59773749029982,1.979069463615373,0.0009331393558719687
1.690000000000001,5663.56792579317,9.283531169225816,4088432.8289995785,283.9892044339901,3167.8001055373124,51.488278074948425,1.9814513210611429,0.0009555006950345969
1.730000000000001,5660.609601572625,9.300688172916406,4085193.4563159146,283.95604810929547,3166.9993805114327,51.37887408138509,1.9838295823662702,0.0009778378240117346
1.7700000000000011,5657.667448870243,9.317852441827,4081951.4050080855,283.9228447382741,3166.198515372824,51.26952559802088,1.9862042453969844,0.0010001508018209057
1.8100000000000012,5654.7415799076,9.335023817324936,4078706.6660191505,283.8895941535947,3165.397516831227,51.16023271018086,1.9885753080918647,0.0010224396874557145
1.8500000000000012,5651.832118192161,9.35220232934138,4075459.2302537914,283.8562961870859,3164.5963834417857,51.05099550377738,1.9909427683740732,0.00104470453949556
1.8900000000000012,5648.939183726221,9.369388000462227,4072209.0885690837,283.822950669638,3163.795114007601,50.94181406502405,1.993306624158136,0.0010669454161389951
1.9300000000000013,5646.062899115138,9.386580847251649,4068956.2317720763,283.7895574311747,3162.9937076142546,50.83268848037162,1.9956668733514542,0.0010891623752132813
1.9700000000000013,5643.203388505407,9.403780887704956,4065700.6506204135,283.7561163006561,3162.1921632849517,50.7236188365398,1.998023513853486,0.0011113554741736921
2.010000000000001,5640.360777656062,9.420988139124363,4062442.335821806,283.722627106069,3161.390480074896,50.614605220513525,2.000376543555813,0.0011335247701065687
2.050000000000001,5637.535193986239,9.43820261840722,4059181.2780336747,283.68908967442,3160.588657058986,50.50564771954534,2.0027259603420546,0.0011556703197317085
2.090000000000001,5634.726766584634,9.455424342049538,4055917.4678628286,283.65550383172825,3159.786693331472,50.39674642115743,2.005071762087775,0.0011777921794047536
2.1300000000000012,5630.160097605689,9.472653326131502,4052650.895865088,283.62186940301785,3158.981032740779,50.28790141314364,2.0074139466604164,0.0011998904051195713
2.1700000000000013,5624.3331287469455,9.489872202890128,4049381.552544934,283.58818621231035,3158.1735862054256,50.179112783571426,2.009752511919212,0.0012219650525105998
2.2100000000000013,5618.510680994202,9.507099294397,4046109.434361373,283.5544541445537,3157.366037384619,50.07038081130908,2.0120874512259608,0.001244016156633253
2.2500000000000013,5612.685494347595,9.52434029815355,4042834.5344022783,283.5206730495805,3156.558039351237,49.96170566932858,2.0144187604514543,0.0012660437635012194
2.2900000000000014,5606.859926197362,9.541586678999224,4039556.8420748534,283.4868427388058,3155.7499844748295,49.85308741563726,2.0167464381760043,0.0012880479310154974
2.3300000000000014,5601.033585847449,9.558840571576633,4036276.3478619754,283.4529630342465,3154.9417778479465,49.744526144334756,2.0190704821272965,0.0013100287129237998
2.3700000000000014,5595.2064523880035,9.57610174930905,4032993.0420288634,283.41903375518353,3154.1334288149733,49.636021944582055,2.0213908901474964,0.0013319861631796975
2.4100000000000015,5589.3785132754165,9.593370206081703,4029706.914787399,283.38505471985223,3153.3249376308813,49.527574905826235,2.0237076600701114,0.001353920335390367
2.4500000000000015,5583.549739012759,9.610645969306226,4026417.9563022866,283.3510257455021,3152.51630289828,49.41918511800941,2.0260207897150835,0.0013758312827968822
2.4900000000000015,5577.72010442682,9.627929047859995,4023126.1566822743,283.316946648302,3151.7075240608283,49.31085267130629,2.028330276894939,0.0013977190583044018
2.5300000000000016,5571.889583893951,9.645219453759804,4019831.505981806,283.28281724335295,3150.898600426237,49.20257765618993,2.030636119413218,0.0014195837144775477
2.5700000000000016,5566.058151783406,9.662517198346642,4016533.9942003917,283.24863734467766,3150.0895313323035,49.09436016342711,2.032938315064573,0.0014414253035432202
2.6100000000000017,5560.225782526552,9.679822292449357,4013233.6112822,283.2144067652118,3149.280316141085,48.98620028407975,2.0352368616347163,0.0014632438773927558
2.6500000000000017,5554.392450578559,9.697134746491063,4009930.3471156503,283.1801253167957,3148.4709542338805,48.878098109507484,2.037531756900359,0.0014850394875839353
2.6900000000000017,5548.558130424156,9.714454570450933,4006624.1915329928,283.1457928101657,3147.661445012896,48.770053731369686,2.039822998629131,0.0015068121853430271
2.7300000000000018,5542.722796575871,9.73178177386739,4003315.1343099186,283.1114090549457,3146.85178790108,48.662067241627646,2.0421105845795364,0.001528562021566798
2.770000000000002,5536.88665700849,9.749116365835926,4000003.165165122,283.0769738596381,3146.040482295736,48.55413873254673,2.044394512500888,0.001550289046824502
2.810000000000002,5531.049102158559,9.76645932223672,3996688.2737598815,283.0424870316153,3145.2280623584134,48.446268296698555,2.046674780133248,0.0015719933113598457
2.850000000000002,5525.214243785899,9.783806161593558,3993370.449368329,283.00794837368136,3144.4126182155646,48.33845601674564,2.0489513854441666,0.0015936748661679418
2.890000000000002,5519.3956605233,9.80113564242782,3990049.6825688877,282.9733577016814,3143.598330741335,48.23070201793807,2.0512243254120928,0.0016153337574740033
2.930000000000002,5513.570902192368,9.818492770614778,3986725.9717843686,282.93871491272887,3142.7829742376493,48.12300667019164,2.0534935913581402,0.0016369700055094431
2.970000000000002,5507.745586120684,9.835852807011234,3983399.304047898,282.9040197847951,3141.9676707854246,48.01536999208277,2.0557591827447173,0.0016585836671954013
3.010000000000002,5501.919078142281,9.853220576844906,3980069.669050173,282.8692721229793,3141.152208775175,47.90779208675813,2.058021097073067,0.0016801747902723087
3.050000000000002,5496.091289227072,9.870595792556346,3976737.056150653,282.83447172837185,3140.336599136056,47.80027304926966,2.0602793320297392,0.0017017434230512107
3.090000000000002,5490.262235521807,9.887978343693032,3973401.45461169,282.7996184004881,3139.520846956401,47.69281297385426,2.0625338853179205,0.0017232896136497977
3.130000000000002,5484.431883389816,9.905368277724822,3970062.853655638,282.7647119378594,3138.7049499602863,47.585411955711855,2.0647847546164027,0.0017448134098077067
3.170000000000002,5478.6002081898705,9.922765592345915,3966721.2424395904,282.7297521377648,3137.8889080945287,47.478070090243605,2.067031937597167,0.0017663148589685499
3.210000000000002,5472.767184916757,9.940170291483712,3963376.61005919,282.69473879626605,3137.0727210412165,47.3707874731855,2.069275431922311,0.0017877940082678828
3.250000000000002,5466.932788311983,9.95758237880878,3960028.945548023,282.65967170819596,3136.25638849131,47.263564200606766,2.0715152352440973,0.001809250904535364
3.2900000000000023,5461.09699320985,9.975001857186673,3956678.2378770164,282.6245506671475,3135.4399101727713,47.15640036890784,2.0737513452050007,0.0018306855942969184
3.3300000000000023,5455.259774439949,9.992428729082144,3953324.4759539445,282.5893754654635,3134.6232858321646,47.04929607482409,2.07598375943765,0.0018520981237763008
3.3700000000000023,5449.421106837211,10.00986299647072,3949967.6486229915,282.5541458942268,3133.8065152384993,46.942251415428,2.0782124755647784,0.0018734885388967935
3.4100000000000024,5443.5809652414155,10.02730466084185,3946607.744664209,282.51886174324983,3132.989598183084,46.83526648813149,2.0804374911991883,0.0018948568852828656
3.4500000000000024,5437.739324495226,10.044753723197655,3943244.7527930527,282.48352280106417,3132.1725344795364,46.728341390688406,2.08265880394372,0.0019162032082618134
3.4900000000000024,5431.896159443005,10.06221018404923,3939878.6616598493,282.44812885490995,3131.355323963912,46.62147622119689,2.0848764113911975,0.0019375275528653823
3.5300000000000025,5426.058190536458,10.079674043413565,3936509.4598492924,282.4126796907253,3130.537031214574,46.514671078101806,2.0870903111244146,0.0019588299638313685
3.5700000000000025,5420.235234316022,10.097122690363108,3933137.1358799236,282.37717509313546,3129.7194321742218,46.40792606019721,2.089300500716081,0.001980110485605204
3.6100000000000025,5414.411577370519,10.114588146996642,3929761.685779296,282.3416149252767,3128.9013067491246,46.301241495335006,2.091506972534994,0.0020013691385078647
3.6500000000000026,5408.585345169255,10.132063245926322,3926383.0985762547,282.3059989760618,3128.082927930472,46.194617501416445,2.0937097237330136,0.0020226059645282327
3.6900000000000026,5402.757604783944,10.149544681680782,3923001.362151031,282.2703270216706,3127.2644502676253,46.088054164047335,2.0959087521935706,0.0020438210087707184
3.7300000000000026,5396.928121437978,10.167033604184931,3919616.464878326,282.2345988428565,3126.4458223428674,45.98155158618131,2.0981040554039803,0.0020650143142821025
