time,thrust,OF,ox_tank.pressure,ox_tank.temperature,combustion_chamber.temperature,propellant_mass,propellant_CG,combustion_chamber.fuel_grain.geometry.length_regressed
0.007,252.1924062079627,4.031931300853426,5243630.997215132,294.7264843021605,2736.573902600809,58.07089192898433,1.7469536112691906,1.6613870063269405e-05
0.014,1230.360466911938,3.8082413732926947,5242364.584809529,294.71575157880534,2774.3608375239983,58.031614853446094,1.747796673939852,3.3147963392949996e-05
0.021,2534.381213985434,3.7572774316963584,5241174.9176588645,294.70566743467384,2781.2486962466305,57.99462055454922,1.7485852049857207,4.892689842114688e-05
0.028,3582.0840676663333,3.717927391169205,5240055.4883795,294.6961770387892,2778.5045274331737,57.959719294900175,1.7493240078753851,6.40042223090662e-05
0.035,4400.09971719368,3.6878072269972364,5238997.678188425,294.68720759965964,2771.8812176345955,57.926658068787916,1.7500193150449428,7.845646408875295e-05
0.042,5040.200980498028,3.666133338037641,5237992.520281775,294.6786833129353,2766.434985397784,57.895172559321814,1.7506775454868204,9.236650338184547e-05
0.049,5534.138115307856,3.6515164048122797,5237031.292653007,294.6705303939557,2762.670133617865,57.865004752981605,1.7513048945013652,0.00010581756710583557
0.056,5912.6085386197665,3.642549763803823,5236105.981917194,294.662681019413,2760.541765591665,57.8359168868499,1.751907019043373,0.00011888810501825926
0.063,6200.884578371049,3.637849576042385,5235209.518054349,294.6550753273526,2759.7482482444775,57.80769865951152,1.7524888849357034,0.0001316487914217514
0.07,6437.544653748913,3.636212074411665,5234335.872069369,294.6476622542525,2759.9446146397704,57.78017036535205,1.753054709278534,0.0001441609150923339
0.07700000000000001,6602.869586702644,3.6366523929994576,5233480.046232616,294.64039946002345,2760.8090842225706,57.75318279277048,1.7536079759819032,0.00015647596237073212
0.08400000000000002,6727.346177597897,3.6385297669442287,5232637.9999057995,294.6332527053709,2762.1339282276226,57.7266151514702,1.7541514940143972,0.0001686359936740586
0.09100000000000003,6820.801518274618,3.6413285003362326,5231806.5132654095,294.6261947009067,2763.7382839391,57.700371096610766,1.7546874966140702,0.00018067479484512288
0.09800000000000003,6890.794523998746,3.644720199701651,5230983.063474661,294.6192040606906,2765.513570578618,57.67437508651106,1.7552177303274408,0.0001926189993394938
0.10500000000000004,6943.098412156203,3.648491849487801,5230165.696604039,294.61226421864603,2767.388376910904,57.64856858617684,1.755743545752122,0.0002044893287421378
0.11200000000000004,6982.09757322643,3.6525074174575214,5229352.912748445,294.6053624560901,2769.3222386700863,57.62290664794241,1.7562659783000731,0.00021630174353468674
0.11900000000000005,7011.109124711749,3.656680746322569,5228543.568352509,294.5984890746113,2771.289022662819,57.59735499650893,1.756785816502612,0.00022806844281267807
0.12600000000000006,7032.634490017663,3.660957441660209,5227736.79608177,294.5916367173282,2773.271788589011,57.57188763332206,1.7573036578340073,0.00023979869641148623
0.13300000000000006,7048.553981103715,3.6653030134088618,5226931.940693904,294.5847998255492,2775.2646640344865,57.54648491698673,1.757819953262477,0.00025149951757706923
0.14000000000000007,7060.279724506776,3.6696952847004414,5226128.508644051,294.5779742117089,2777.262875557559,57.52113205357477,1.758335042184447,0.00026317619526953676
0.14700000000000008,7068.870263953445,3.674119891623281,5225326.129030046,294.5711567283444,2779.2638644903236,57.495817926036814,1.7588491794521666,0.0002748327086896902
0.15400000000000008,7075.118231425268,3.678567358122009,5224524.523591577,294.5643450137703,2781.2662964771716,57.4705341947075,1.759362556107207,0.0002864720467707056
0.1610000000000001,7079.616656969712,3.683031327391474,5223723.483840134,294.5575372981744,2783.269509302123,57.445274611496764,1.7598753151681223,0.0002980964522783167
0.1680000000000001,7082.808956070095,3.687507463192952,5222922.853717557,294.55073225656633,2785.273201152515,57.42003449984076,1.7603875635902229,0.00030970760717120594
0.1750000000000001,7085.026518848432,3.6919927607656113,5222122.516498772,294.5439288977016,2787.277257540409,57.3948103619434,1.760899381290847,0.0003213067727171055
0.1820000000000001,7086.516923329264,3.6964851084885635,5221322.3849293,294.5371264804277,2789.2816568493836,57.36959958304581,1.7614108279406477,0.0003328948950501964
0.1890000000000001,7087.465081643811,3.7009830043494443,5220522.393814847,294.53032445082096,2791.2864198868965,57.34440020925399,1.7619219480629775,0.0003444726844931697
0.19600000000000012,7088.009072619345,3.7054853691855456,5219722.494462567,294.52352239502574,2793.2915837339415,57.31921078090856,1.7624327748567805,0.0003560406750524655
0.23600000000000013,7088.251986522931,3.7099914213752423,5218922.650516409,294.5167200039163,2795.2971888008865,57.294030207768145,1.7629433330590778,0.0003675992689797976
0.27600000000000013,7080.321241643478,3.7168366792522387,5214346.274109827,294.47778401759695,2798.3105334383235,57.150209040838064,1.7658573701478295,0.00043354480282163915
0.3160000000000001,7070.913865928683,3.7439665837177465,5209766.915256175,294.4387961887873,2808.716104441397,57.00653452783221,1.7687658637183108,0.0004992358722355393
0.3560000000000001,7066.9941722979565,3.767911172383004,5205183.350463214,294.39974600275775,2817.3783476493713,56.86297008752696,1.771669603511177,0.0005646878175042746
0.3960000000000001,7059.299254384976,3.7954440421378686,5200598.653858426,294.3606595675482,2827.323194667181,56.71960659425264,1.7745664818268823,0.0006298711040908729
0.43600000000000005,7054.1962169997105,3.8206675870402487,5196010.777251237,294.3215193478371,2836.440625679658,56.57638298624079,1.777457848096833,0.0006948096377784025
0.47600000000000003,7047.488213218885,3.8475197579221523,5191421.083947293,294.2823368944544,2846.13910379507,56.43333926765824,1.7803427564010095,0.0007594918069124598
0.516,7041.948011447688,3.8733816178468974,5186828.684540699,294.24310453855304,2855.482346788712,56.29044883273963,1.783221773458876,0.0008239292704731732
0.556,7035.738899422083,3.9000006746289926,5182234.180918979,294.20382734330525,2865.094877772734,56.14772912916531,1.786094468337919,0.0008881182732034294
0.5960000000000001,7030.076529239031,3.926211450824245,5177637.185729821,294.1645019202968,2874.560370150784,56.00516845029604,1.7889610710818278,0.0009520651652519345
0.6360000000000001,7024.152491750611,3.952794389315802,5173037.967929323,294.12513049202425,2884.1572802807577,55.86277442567285,1.7918213753647345,0.0010157695485163
0.6760000000000002,7018.502577104474,3.9792281981732085,5168436.359584917,294.08571154324704,2893.699154331465,55.72054185530298,1.7946754654811483,0.001079235426377784
0.7160000000000002,7012.768418006175,4.005863644975772,5163832.483170864,294.0462460448267,2903.311755652518,55.57847407611383,1.7975232339850362,0.0011424638196134535
0.7560000000000002,7006.706452328209,4.0324663119244,5159226.266976291,294.0067333039584,2912.423310906675,55.43656874667075,1.8003647021733455,0.0012054576669343763
0.7960000000000003,6998.690233474133,4.059358666074676,5154617.768599169,293.9671737362824,2920.0076374112004,55.294827321697554,1.8031998067114154,0.0012682185691958714
0.8360000000000003,6989.783522740991,4.086610136397016,5150006.772590403,293.9275654122898,2927.686384610622,55.153243309803926,1.806028663237019,0.0013307508002887848
0.8760000000000003,6981.423510886412,4.113391989954758,5145392.790154535,293.8879040466434,2935.2328974733073,55.0118023251413,1.8088515640443878,0.0013930612541445554
0.9160000000000004,6972.807203607477,4.140545295942557,5140776.071602965,293.8481917020049,2942.8809446161476,54.87051153160413,1.8116683189135254,0.0014551494521836145
0.9560000000000004,6964.441304634497,4.167575204375966,5136156.460999296,293.8084269486038,2950.4933088313733,54.729366287983545,1.814479002613021,0.0015170188928212683
0.9960000000000004,6956.01012973933,4.1947959772869154,5131534.060212332,293.76861057412054,2958.1571343117807,54.588369451392644,1.8172835229185282,0.001578670504847561
1.0360000000000005,6947.708887583217,4.222012116933608,5126908.810583549,293.72874198420357,2965.8182606401356,54.4475192343441,1.8200818919808832,0.0016401067561552598
1.0760000000000005,6939.414775531117,4.249347461161388,5122280.753170088,293.6888214432399,2973.511000085896,54.306816746773094,1.822874057970618,0.0017013291096059072
1.1160000000000005,6931.203018334329,4.276725532097996,5117649.8664737735,293.6488486761704,2981.2141934030274,54.16626130009326,1.8256600097366638,0.0017623396040382534
1.1560000000000006,6923.025513889784,4.304195541931521,5113016.167654542,293.608823741175,2988.941469998285,54.02585333130699,1.8284397116960596,0.0018231398733646023
1.1960000000000006,6915.1255212115075,4.331727800004519,5108379.649386391,293.56874648483875,2996.4319144125957,53.88559258115161,1.831213144320267,0.0018837317571509535
1.2360000000000007,6908.590459215149,4.359433433193382,5103740.31928698,293.5286168825925,3002.188532278394,53.7454792296089,1.8339802789097703,0.0019441169219993795
1.2760000000000007,6900.938788387106,4.387741452113582,5099098.07794657,293.4884339830211,3008.060633644165,53.60551040107405,1.8367411548047976,0.0020042980191346477
1.3160000000000007,6893.891018563953,4.415402484420412,5094452.295007037,293.4481922313229,3013.7994165711143,53.465668072447194,1.8394961455030236,0.002064282659437011
1.3560000000000008,6886.56168599987,4.443532102679265,5089803.279367942,293.4078942014694,3019.631768915551,53.32596114293088,1.8422450300730029,0.002124069515050049
1.3960000000000008,6879.464155274473,4.47151802439212,5085150.848732722,293.3675382124086,3025.433491633978,53.18638447089553,1.8449878978728058,0.002183661870458874
1.4360000000000008,6872.304459310538,4.499716648540417,5080495.105714135,293.32712505227295,3031.276826598945,53.046941059946725,1.8477246592832934,0.0022430603042447525
1.4760000000000009,6865.249645491853,4.527924138668213,5075835.989650081,293.2866540926018,3037.1190142584055,52.907629266178034,1.850455327418895,0.0023022668994539543
1.516000000000001,6858.202859935855,4.556259344798636,5071173.533049791,293.2461255132955,3042.9855905095437,52.768450106394106,1.8531798573985596,0.002361282844922064
1.556000000000001,6851.21891671445,4.584654711335918,5066507.7145143,293.20553902562204,3048.862900849314,52.62940307291342,1.8558982382407267,0.0024201098063023722
1.596000000000001,6844.265695133408,4.6131504735966615,5061838.5434109075,293.1648946078965,3054.7590876638747,52.49048853899404,1.8586104401036705,0.0024787491406772595
1.636000000000001,6839.0405999655095,4.641724784454936,5057166.011249187,293.1241920827129,3059.942856799563,52.351706379409215,1.8613164444804136,0.002537202346574041
1.676000000000001,6836.067390586319,4.670602396879247,5052490.11944801,293.0834313585278,3064.073721706996,52.21305675670661,1.86401622699516,0.002595470808735514
1.716000000000001,6832.803283047001,4.699632488261663,5047810.651743738,293.0426104438817,3068.2211745818277,52.074533715218244,1.8667098966614666,0.002653557862134127
1.7560000000000011,6829.766458706494,4.728499903021781,5043127.387139928,293.00172730026003,3072.344685698303,51.93613121136441,1.8693975640261808,0.002711466832455959
1.7960000000000012,6826.755145917413,4.757582977275471,5038440.416766937,292.9607826109412,3076.496776915077,51.7978520017206,1.8720791485421204,0.0027691981879859654
1.8360000000000012,6823.881107251575,4.786693835901046,5033749.684456806,292.9197757729429,3080.6514955769276,51.65969470815754,1.8747546598359406,0.0028267537087264365
1.8760000000000012,6821.087058038973,4.815934601393946,5029055.212982642,292.878706872351,3084.822954629233,51.52166017578886,1.8774240596747238,0.0028841344431008134
1.9160000000000013,6818.404372598809,4.84525231372209,5024356.983126682,292.8375756276944,3089.0038471509924,51.383748079526946,1.8800873355172072,0.0029413417966221694
1.9560000000000013,6815.8179633037635,4.874676385405059,5019654.997589102,292.7963819487255,3093.1982359350086,51.245958714405404,1.882744461753496,0.0029983769593631875
1.9960000000000013,6813.337141603575,4.904192528690266,5014949.247238273,292.75512564111006,3097.404155157896,51.108292051450746,1.885395420101049,0.003055241207712393
2.0360000000000014,6810.457676428187,4.933809608823725,5010239.728910907,292.7138065622773,3101.5473457403295,50.97074823467986,1.8880401888710152,0.003111935746382624
2.0760000000000014,6798.05938537136,4.9635895031079835,5005526.436046248,292.67242453934637,3104.274490316942,50.83332731985655,1.8906787485888206,0.003168461791760847
2.1160000000000014,6783.49746670267,4.994640465822306,5000809.301484361,292.6309788662489,3107.0977942296904,50.696027691047874,1.893311115865181,0.0032248210704431887
2.1560000000000015,6770.080646481734,5.024406994569707,4996087.165577725,292.589459225577,3109.8072275254067,50.55881754432229,1.895937952558102,0.0032810247723828495
2.1960000000000015,6756.309977059584,5.054864730091665,4991360.494091993,292.5478695770037,3112.5744097345564,50.421710154588965,1.8985589546406456,0.003337069853543329
2.2360000000000015,6742.804845576952,5.0851901573913,4986629.077403834,292.5062079424335,3115.328359398194,50.28470010576618,1.9011742183190525,0.003392959138236723
2.2760000000000016,6729.3086904856345,5.115728019746501,4981892.986271081,292.4644748094647,3118.0998098215086,50.14778973848925,1.9037836743218002,0.0034486930006639104
2.3160000000000016,6715.9261924932325,5.146336365566296,4977152.17518473,292.4226696413921,3120.876343451965,50.01097819174392,1.9063873219230558,0.003504272804450063
2.3560000000000016,6702.613367095223,5.177075497085699,4972406.646459265,292.3807923220261,3123.6632320169147,49.874265928844174,1.9089851324290603,0.0035596994855082594
2.3960000000000017,6689.387111430643,5.207921933523054,4967656.382446814,292.33884255839035,3126.4584219808726,49.73765287067162,1.9115770889135333,0.00361497413563631
2.4360000000000017,6677.825732634912,5.238886732128213,4962901.373377736,292.2968201262044,3129.090208264651,49.60113916106501,1.9141631699420263,0.003670097764086213
2.4760000000000018,6675.551504646197,5.27001725268067,4958141.605975013,292.25472476940314,3130.7246520209524,49.46472485424157,1.9167433561989111,0.003725071395060161
2.516000000000002,6673.032454293911,5.30150523998708,4953377.022374656,292.21255583630995,3132.3725208109804,49.32840879625731,1.9193176540289723,0.0037798964123587904
2.556000000000002,6670.757562045636,5.33280490381581,4948607.36068434,292.17031086548167,3134.0105427750836,49.192184298030156,1.9218861862259558,0.0038345758864674986
2.596000000000002,6668.594887735887,5.364344432319752,4943832.703214337,292.1279904400883,3135.6598971230364,49.056054068628995,1.9244488775119304,0.003889109973995118
2.636000000000002,6666.595177087523,5.39596289619685,4939053.000230317,292.0855939732328,3137.3125972717717,48.920017226527996,1.9270057284282383,0.003943499926157546
2.676000000000002,6664.744530578161,5.427720982744527,4934268.250186398,292.0431213040823,3138.9716526224547,48.78407420732291,1.9295567120018056,0.003997746577500363
2.716000000000002,6663.052262526111,5.459597966557973,4929478.433675169,292.0005721124892,3140.6360329061936,48.648224968099115,1.9321018114831119,0.004051850897981343
2.756000000000002,6661.51963876953,5.491602850626926,4924683.537468851,291.9579461321995,3142.3061827324996,48.51246963989798,1.934641006648423,0.00410581379304129
2.796000000000002,6660.150942083244,5.523733857930627,4919883.545820062,291.9152430736304,3143.982011826276,48.37680829197397,1.9371742787331605,0.004159636175954347
2.836000000000002,6654.6142991853,5.555993113022207,4915078.443593843,291.8724626516766,3145.122455259936,48.241241016493426,1.939701608654947,0.004213318942140891
2.876000000000002,6645.884153589995,5.58868658165166,4910268.215148096,291.82960457574643,3145.9214473338875,48.10576789827453,1.9422229776401159,0.004266862978575044
2.916000000000002,6637.038997000034,5.621378912748507,4905452.581182913,291.7866662024896,3146.7177122577427,47.97038196364174,1.9447385132767177,0.004320271293473624
2.956000000000002,6628.270344606335,5.654103589987481,4900631.447785228,291.74364653535383,3147.5146686710245,47.835081251934916,1.9472482386259458,0.00437354535681432
2.996000000000002,6619.510362054285,5.687002396993353,4895804.828678515,291.7005455361993,3148.3153807727367,47.699866697279774,1.9497521168336294,0.004426685752902079
3.0360000000000023,6610.778836474373,5.720026120612442,4890972.6958161425,291.6573627932156,3149.1187322414485,47.56473812107055,1.9522501342246512,0.004479693392366688
3.0760000000000023,6602.069721183561,5.753191052923431,4886135.033494526,291.6140980036452,3149.925092595675,47.429695681542434,1.9547422702799417,0.0045325690746531215
3.1160000000000023,6593.384330729692,5.786494049115863,4881291.822156617,291.5707508291777,3150.7343871234443,47.29473944059402,1.9572285065871857,0.004585313618720627
3.1560000000000024,6584.721922796329,5.819937540452786,4876443.043029737,291.52732093736927,3151.546668850528,47.15986948761586,1.9597088242804372,0.004637927825949739
3.1960000000000024,6572.3168392790385,5.8535224003040875,4871588.676821117,291.48380798996527,3152.0658985988975,47.025085904717756,1.9621832047518861,0.0046904124907304594
3.2360000000000024,6555.1886376341345,5.887403053947745,4866728.704080467,291.4402116461295,3152.223322742389,46.890388776377876,1.9646516294488283,0.004742768397717374
3.2760000000000025,6538.023394579725,5.921454659494523,4861862.978294892,291.39653042272835,3152.379002037916,46.75577484081313,1.9671141481379417,0.004794997315890328
3.3160000000000025,6521.1189634752955,5.955504213362049,4856991.365363342,291.352762943505,3152.535012777928,46.6212411928165,1.969570802930268,0.004847100892320498
3.3560000000000025,6504.346940763055,5.98975042678222,4852113.8840115955,291.308909202439,3152.691895732574,46.486788973208476,1.9720215533952319,0.004899079562469619
3.3960000000000026,6487.7378693660285,6.024134781421824,4847230.502464721,291.26496873875806,3152.849420443193,46.352417996620275,1.9744663862295846,0.0049509341472391295
3.4360000000000026,6471.282776593749,6.0586727072505715,4842341.200865252,291.2209411974739,3153.0049692369507,46.218422353531366,1.9769133863463575,0.005002665364175931
3.4760000000000026,6455.336702934067,6.09211351945491,4837445.956504405,291.1768261966413,3153.1520169624764,46.08990548229113,1.9795033854119448,0.005054275451436717
3.5160000000000027,6446.060403857031,6.102685058124929,4832544.828722404,291.13262409324267,3153.138228623408,45.96144964390082,1.982087019092108,0.005105792064199464
3.5560000000000027,6436.862425595706,6.114438528358988,4827639.326717562,291.0883483363031,3153.138136421173,45.83309374812832,1.9846634377768797,0.005157203838172977
3.5960000000000027,6427.495917852671,6.126417949795924,4822729.580397582,291.04399995281716,3153.1376636880973,45.70484171619955,1.9872325568344047,0.00520851006016523
3.636000000000003,6418.216524189853,6.138261096287093,4817815.477723386,290.99957778489846,3153.1364308613406,45.57669136371294,1.9897944243101433,0.005259711865125166
3.676000000000003,6410.283412807095,6.150108243020062,4812897.0205941005,290.95508170214765,3152.9997997666915,45.44864338458636,1.9923490256706171,0.005310809511430482
3.716000000000003,6402.565602932866,6.161988617823328,4807974.181775357,290.9105113098002,3152.8318766788866,45.32069774184171,1.9948963621799565,0.00536180347501806
3.756000000000003,6394.86131027613,6.173794299760047,4803046.889305828,290.8658658063487,3152.664379679644,45.19285328351453,1.997436458998141,0.005412694563664362
3.796000000000003,6387.162373507033,6.185579445392667,4798115.124985156,290.82114487538206,3152.4969264186457,45.06511021206995,1.9999693119547377,0.00546348317208012
