time,thrust,OF,ox_tank.pressure,ox_tank.temperature,combustion_chamber.temperature,propellant_mass,propellant_CG,combustion_chamber.fuel_grain.geometry.length_regressed
0.007,247.0117946252566,3.2377297419775615,3884279.3949030116,281.8602347280628,2572.622048913881,55.378515573621385,1.9490337982945705,1.724401759124122e-05
0.014,1131.1861490817398,2.9827091201998566,3883472.8815039704,281.8516609903048,2482.9491807527675,55.342250277015744,1.949605108185923,3.436912075424075e-05
0.021,2290.2912215920164,2.948947683035302,3882735.4542110506,281.8438205239422,2469.4350747177373,55.30898283526924,1.9501243507705779,5.0291039409116985e-05
0.028,3187.4301395020966,2.920868201893706,3882058.011869261,281.83661685477193,2455.0091720845394,55.27832492012837,1.950598598928896,6.515150767708325e-05
0.035,3871.273496108781,2.902887287246548,3881432.108655968,281.82996040413684,2445.353341409547,55.24991480834945,1.9510343596285395,7.908590233122041e-05
0.042,4381.195406035513,2.893519819114453,3880849.1329649473,281.8237597689822,2440.4465267018522,55.22338182098398,1.9514381914503283,9.223747975756983e-05
0.049,4762.082954439115,2.891048478671701,3880300.955780026,281.817928626337,2439.5611455619023,55.198374521942554,1.9518162288403693,0.0001047455780161772
0.056,5042.256260202271,2.8933143580086638,3879780.2877528113,281.81238954153633,2441.4919161712,55.174576578530065,1.9521739306079762,0.00011673828619396277
0.063,5247.534089717786,2.898394626462892,3879280.902406217,281.80707635243795,2445.0916299391106,55.15171692742047,1.9525159304663768,0.00012832723544973278
0.07,5396.139475886947,2.9048039163043335,3878797.6854582354,281.801934703044,2449.4538660190333,55.12957235609445,1.9528460151799738,0.00013960558678539553
0.07700000000000001,5503.9367181685475,2.911560521387385,3878326.5694543174,281.79692135551113,2453.97582438614,55.10796498990531,1.9531671842726581,0.0001506483486335839
0.08400000000000002,5582.012661762648,2.9181112161611558,3877864.402020411,281.79200279434053,2458.320372860642,55.08675676832068,1.9534817550869263,0.0001615141960370855
0.09100000000000003,5637.1594379933185,2.924209121113836,3877408.789251713,281.78715356453,2462.339491291731,55.065842737482285,1.9537914830730523,0.00017224799259775518
0.09800000000000003,5676.163946295027,2.929793617041531,3876957.941349999,281.7823546323917,2466.0040830925213,55.045144371864794,1.9540976781836834,0.00018288344664848643
0.10500000000000004,5703.744535099063,2.934896487093628,3876510.535639116,281.7775919302857,2469.341288971189,55.02460361323193,1.954401307044275,0.00019344555621744224
0.11200000000000004,5723.114258193684,2.939589792115661,3876065.603409156,281.7728551541652,2472.4019877720557,55.0041779287488,1.9547030767659783,0.00020395267413918342
0.11900000000000005,5736.592468806058,2.9439543065873135,3875622.439899936,281.7681368068062,2475.2415676991163,54.98383637043828,1.9550035012993525,0.00021441817499298678
0.12600000000000006,5745.84873865956,2.9480642472780785,3875180.5348740397,281.76343145975545,2477.910311248391,54.96355653135752,1.9553029524389853,0.0002248517531862575
0.13300000000000006,5752.08233250387,2.9519818029044553,3874739.5202526334,281.75873519658717,2480.4498279574805,54.94332224763336,1.9556016982006723,0.00023526040828535956
0.14000000000000007,5756.153825310328,2.9557563902543498,3874299.131213192,281.7540451992378,2482.8937440636905,54.92312189026627,1.9558999312826721,0.0002456491801295308
0.14700000000000008,5758.679657606723,2.9594260113808923,3873859.177600383,281.749359443971,2485.2675031569424,54.90294710937755,1.9561977899546348,0.00025602169053978615
0.15400000000000008,5760.101171036841,2.9630192466903233,3873419.5230761473,281.7446764796236,2487.5902171428133,54.88279191827008,1.9564953732768198,0.000266380539052441
0.1610000000000001,5760.73414683428,2.9665572812587233,3872980.0700009563,281.7399952667907,2489.876041489001,54.86265202925051,1.9567927521275377,0.0002767275901527853
0.1680000000000001,5760.804417831524,2.970055659404247,3872540.7485138886,281.73531506166216,2492.135357510942,54.842524373951875,1.9570899771631862,0.00028706418082955707
0.1750000000000001,5760.473427069808,2.9735257058592968,3872101.508668516,281.73063533235825,2494.3757262238646,54.82240675793584,1.9573870845479784,0.00029739127006238444
0.1820000000000001,5759.856549844284,2.976975629931274,3871662.3147813687,281.725955698799,2496.6026277194806,54.80229761252269,1.9576841000698952,0.00030770954623187275
0.22200000000000011,5759.036216734201,2.9804113613858827,3871223.1413768143,281.72127588955516,2498.8200201063546,54.78219581676289,1.9579810420929344,0.00031801950416221383
0.2620000000000001,5751.159497471835,2.98696485635462,3868710.044549197,281.69448887862444,2503.038786336802,54.66738792349699,1.959677300011195,0.000376838040370592
0.3020000000000001,5740.309125401599,3.0070100848917636,3866194.1294066394,281.6676588903333,2515.964420126921,54.55266755982788,1.9613736558610422,0.00043545193597129033
0.3420000000000001,5735.797108685235,3.023518660107759,3863675.198564979,281.64078376067226,2526.616884692523,54.438025623449235,1.9630702205732329,0.0004938668757381643
0.38200000000000006,5725.10962039347,3.0458878747641878,3861156.0870279684,281.6138936982147,2541.0418878472046,54.32358442938931,1.9647649228905093,0.0005520325389482496
0.42200000000000004,5721.380163496026,3.0622550054316493,3858634.2133130687,281.5869611101601,2551.6037763949835,54.20923126014853,1.9664595945259844,0.0006099989149144128
0.462,5710.21242249554,3.085352260558958,3856112.5094077555,281.56001727462996,2566.495976537514,54.09509217297257,1.968152101456043,0.0006677143545270345
0.502,5707.367415549702,3.101085398814768,3853587.8124729437,281.5330283611973,2576.6497276496,53.981029743033304,1.9698446888584418,0.0007252390059895662
0.542,5696.578463194009,3.125075394185411,3851063.6460190695,281.5060320025883,2591.6342167721496,53.86719512587628,1.971534805101515,0.0007825108381967715
0.5820000000000001,5697.909212654543,3.1401108582411648,3848536.1431012303,281.4789868049742,2599.855139007927,53.75342108250762,1.9732251942215917,0.0008396022015461052
0.6220000000000001,5689.947469215342,3.1655662876874033,3846009.481109408,281.45193743406156,2613.748411368914,53.63988639307307,1.9749128445098512,0.0008964397170859735
0.6620000000000001,5691.675586451642,3.1795109436812514,3843478.6565498193,281.42483028411493,2621.3737015429415,53.526375708749626,1.976601304023354,0.0009531154520045071
0.7020000000000002,5683.188274670526,3.2057247549090713,3840948.9008972044,281.3977213496638,2635.677238479486,53.41311244880826,1.9782868173415358,0.0010095376406374342
0.7420000000000002,5685.624851199257,3.218892154855643,3838414.6789736976,281.3705512743327,2642.87934386426,53.29985929675494,1.9799733017751546,0.001065806988998938
0.7820000000000003,5676.514318418892,3.24611149821615,3835881.9084570347,281.34338346482724,2657.7276558562057,53.18686822847436,1.9816565250907696,0.001121820275928145
0.8220000000000003,5679.803452448839,3.2583217848399086,3833344.310064836,281.31615052502036,2664.409078620998,53.07387104294946,1.9833409225376113,0.0011776904733517006
0.8620000000000003,5669.910476661941,3.2867666418148453,3830808.6266714055,281.28892478024085,2679.921553175752,52.961153990828805,1.9850216894402204,0.0012333006511791092
0.9020000000000004,5674.226987878924,3.2977778206924424,3828267.6640995815,281.26162894489465,2685.9510511326025,52.848410939289465,1.9867038966984305,0.0012887788411377052
0.9420000000000004,5663.351318827708,3.327724419747876,3825729.1793580977,281.234346310263,2702.277548797007,52.73597019375517,1.9883820371399177,0.001343991332184514
0.9820000000000004,5668.916009994099,3.3372278028853923,3823184.850972766,281.2069873988054,2707.487731956008,52.623478952171084,1.9900619632871082,0.0013990846642266191
1.0220000000000005,5656.804946713931,3.3690284482276307,3820643.688916882,281.17964905768196,2724.8193366251685,52.51131738502711,1.9917373014860875,0.0014539044842898068
1.0620000000000005,5663.898757009863,3.376628008350444,3818095.9754080023,281.1522266990319,2728.995486901995,52.39907498310893,1.9934148703007883,0.0015086201810838135
1.1020000000000005,5650.230943701456,3.4107354407268597,3815552.2770390254,281.1248340213176,2747.5776984009394,52.287196224304765,1.99508722163355,0.0015630518787869958
1.1420000000000006,5659.213735986751,3.41591958266031,3813001.1364512006,281.097347599579,2750.4424830283283,52.175198842440636,1.9967623748311225,0.0016173973210287344
1.1820000000000006,5642.074307300219,3.452919906377659,3810455.0657271035,281.0699022070134,2767.7207931244156,52.063607518042176,1.998431541710482,0.00167144489349808
1.2220000000000006,5651.090385557139,3.4565947750870403,3807900.426739359,281.04235078801264,2769.420060674512,51.95185021451216,2.0001042433502803,0.0017254277308764003
1.2620000000000007,5632.787897863734,3.494690334585903,3805351.0174096436,281.01484210916766,2786.5952099408214,51.84050379815364,2.001770819062723,0.0017791140336058592
1.3020000000000007,5642.305175163983,3.497390091121903,3802792.562721573,280.98722209389274,2787.8570301211685,51.728971576249506,2.0034412047175114,0.0018327457250426357
1.3420000000000007,5623.503222492327,3.5364728181323106,3800239.61137603,280.9596477600322,2805.470658938921,51.61785985720553,2.005105246737512,0.0018860802062113835
1.3820000000000008,5633.691467413786,3.5382585864072795,3797677.3213702743,280.9319587531939,2806.3237889850466,51.50655033616737,2.0067732445764435,0.001939366911220782
1.4220000000000008,5614.281949073054,3.5785286399255734,3795120.899962007,280.90431936481235,2824.4656844812903,51.39567470519333,2.008434619811756,0.0019923541764580712
1.4620000000000009,5625.262821351047,3.5792254113982986,3792554.7878759056,280.87656132529867,2824.8318931694735,51.28458695035428,2.010100136871514,0.002045301325967659
1.502000000000001,5605.114464126796,3.6208787867333374,3789994.976264045,280.84885757035204,2843.589738092216,51.17394917014192,2.011758708985307,0.0020979457041225987
1.542000000000001,5617.02498400288,3.6202796407348985,3787425.0503728213,280.8210304032863,2843.3765397237653,51.06308210866629,2.0134216575064774,0.002150558645947111
1.582000000000001,5595.988187471206,3.663542528062447,3784861.9322123392,280.7932630130309,2862.851465711824,50.95268413714961,2.0150772897636076,0.002202864266597372
1.622000000000001,5608.985566145988,3.661406523892126,3782288.1941903965,280.76536655178705,2861.951211982144,50.8420364903488,2.0167375882091285,0.002255148296247761
1.662000000000001,5586.888500873122,3.7065426152887517,3779721.8579836125,280.73753631235553,2882.261061760053,50.73188051930899,2.0183901427341295,0.002307119080303579
1.702000000000001,5601.154631467957,3.7025873910067078,3777144.301743892,280.7095703056668,2880.547643068503,50.621450755811566,2.0200477164632145,0.002359079462793249
1.742000000000001,5578.682666403803,3.749906203497145,3774574.842226049,280.68167807332924,2899.6138193789557,50.51153926262375,2.0216970532852274,0.002410719108002078
1.7820000000000011,5592.816291499371,3.7449209755023776,3771993.452504335,280.6536421695607,2897.8691416635274,50.40132554198725,2.023351835389958,0.0024623611028283775
1.8220000000000012,5571.197281795347,3.7926422642532005,3769420.1997981756,280.62568049266775,2915.203107973086,50.29162984002687,2.024998337567791,0.002513685367849945
1.8620000000000012,5584.201700332853,3.78840250120674,3766835.0275162742,280.5975750546775,2913.729487767735,50.181633135495694,2.026650216586045,0.0025650129883887113
1.9020000000000012,5563.598115261311,3.83501207108893,3764257.392491322,280.5695373336385,2930.6518763032445,50.072128195814685,2.0282942083428677,0.0026160359278552137
1.9420000000000013,5575.730319146243,3.8319662912647874,3761668.364743135,280.54136137403526,2929.61505178313,49.96234453387641,2.029943157766468,0.0026670549798723277
1.9820000000000013,5556.053366383512,3.877661746100555,3759086.401854862,280.5132479943926,2946.1983107260376,49.853031749364234,2.0315845242520725,0.0027177801655789867
2.022000000000001,5567.414191919558,3.875697396224931,3756493.524683578,280.4850013824949,2945.555480138775,49.74346044090496,2.0332304649249426,0.0027684950604859307
2.062000000000001,5548.567461506639,3.920599288555643,3753907.2938924795,280.45681279083135,2961.8453549918568,49.63434145919986,2.0348690891871337,0.00281892587290145
2.102000000000001,5559.24726799173,3.919603949860753,3751310.5756524103,280.4284954206731,2961.5554654945086,49.52498195954858,2.036511941684357,0.0028693408631640708
2.1420000000000012,5541.142433558383,3.963824160498538,3748720.133984489,280.40023203280856,2977.5928185722028,49.41605833789262,2.038147710363442,0.002919480629037688
2.1820000000000013,5551.223547763594,3.9636929427478838,3746119.584220392,280.37184381100184,2977.6176115915373,49.306910198503964,2.0397873957220045,0.002969599831111224
2.2220000000000013,5533.77979897702,4.007336104563614,3743524.9857988595,280.34350601221206,2993.4406125750397,49.19818340484175,2.041420198965088,0.0030194518254614993
2.2620000000000013,5543.337591483678,4.007970813959767,3740920.6149768843,280.3150468550503,2993.744316694108,49.08924626000945,2.0430566388330678,0.0030692792287663577
2.3020000000000014,5528.820686996282,4.051135400271883,3738321.911312374,280.2866350031113,3007.3503807349125,48.98071768448612,2.044686370037121,0.003118846672804175
2.3420000000000014,5537.013730683659,4.053431544970016,3735713.73060758,280.2581048342767,3008.0634484709262,48.87199124058598,2.046319486783996,0.0031683861474732402
2.3820000000000014,5525.44852399729,4.094646325605563,3733110.3350861333,280.22961230227304,3019.620315564805,48.76363685638984,2.0479464649100256,0.0032176818187695075
2.4220000000000015,5531.8997348600515,4.099614105958624,3730498.2135274066,280.2010094845801,3021.07641579344,48.65511524506843,2.0495762756107374,0.0032669392352291204
2.4620000000000015,5521.9529782114205,4.138096831407958,3727889.7412361987,280.17243183080353,3031.866226819888,48.54691936425633,2.0512006818723307,0.0033159725444030755
2.5020000000000016,5527.086687631161,4.145784221010905,3725273.5619801334,280.14375487344495,3034.0807569354583,48.43859740952701,2.052827193628615,0.003364953385136939
2.5420000000000016,5518.520295577812,4.182009026323716,3722660.115343715,280.11509298498635,3044.2369827258976,48.33056387591502,2.0544488851732785,0.003413726229566419
2.5820000000000016,5522.570324749797,4.1920325430088035,3720039.824806086,280.0863410862045,3047.102240553575,48.22243899493132,2.056072063446052,0.0034624348995630294
2.6220000000000017,5515.173122643407,4.2263615479150305,3717421.4972216035,280.0575957534677,3056.7265837707314,48.11457129621961,2.0576909049972665,0.003510949252236408
2.6620000000000017,5518.334185124515,4.23839095565804,3714797.053518368,280.0287682372388,3060.149884869998,48.0066414291402,2.0593107080841913,0.0035593898728488627
2.7020000000000017,5511.929580638312,4.271132072948895,3712173.9265237073,279.9999401224347,3069.328748735118,47.89894258876001,2.0609265736905726,0.0036076478226008003
2.7420000000000018,5514.3647138853685,4.28488684564708,3709545.297170098,279.971036413679,3073.2314268691653,47.791206100761094,2.0625429543117018,0.003655824273795425
2.782000000000002,5508.805306395059,4.316302057191332,3706917.442138254,279.9421260689315,3082.0382650429424,47.683678749421745,2.0641557261015127,0.003703827997809523
2.822000000000002,5510.419388148871,4.331544170754373,3704284.6024962827,279.9131456768327,3086.107252362438,47.576134363641785,2.0657686324711935,0.0037517439480137904
2.862000000000002,5503.284414347165,4.361982302688108,3701652.082122341,279.8841535600929,3092.3394798669983,47.468780801671286,2.067378199562013,0.0037994956882755407
2.902000000000002,5502.350661911767,4.379489920201374,3699014.9377340735,279.8550952224183,3095.954254476045,47.36142456204058,2.0689876258064985,0.003847155721396098
2.942000000000002,5496.123623081896,4.407830209767614,3696377.078671666,279.82601367555503,3101.7564604278423,47.25421841958554,2.070594354882315,0.0038946682392375846
2.982000000000002,5494.433758266729,4.427012921608804,3693735.1563932844,279.7968719428414,3105.7081416855885,47.1470317582349,2.0722005388140756,0.003942082214185689
3.022000000000002,5488.937401922578,4.454162013836215,3691092.0266522346,279.7677014601414,3111.266983513627,47.03997583033333,2.073804312730431,0.0039893573437929965
3.062000000000002,5486.715110282831,4.4746458380361815,3688445.2653625906,279.7384754134573,3115.479815936488,46.93295640009984,2.0754072236085825,0.004036529016812764
3.102000000000002,5481.762518990437,4.500961093469562,3685796.9395688926,279.70921656323355,3120.8678470638265,46.82605374597051,2.0770079221303663,0.004083568446375357
3.142000000000002,5479.167603333929,4.522443893723589,3683145.298557104,279.6799055058077,3125.2794929877236,46.71920004528718,2.0786075163237805,0.004130501194206645
3.182000000000002,5474.621497945314,4.548189899148867,3680491.834424636,279.6505586705923,3130.5483393570003,46.61245307429214,2.0802050312602014,0.004177306803082647
3.222000000000002,5471.770058741579,4.570448102292767,3677835.2861954323,279.62116204913406,3135.114130031879,46.505764158276136,2.081801257027818,0.0042240037348519
3.2620000000000022,5467.530387547927,4.595820368713464,3675176.728179354,279.59172746533056,3140.3054499917157,46.39917477832551,2.083395489711836,0.004270577537459134
3.3020000000000023,5464.507432694634,4.618689328174448,3672515.255034294,279.56224483275264,3144.9923080758667,46.29265011973298,2.0849882894887486,0.00431704154996583
3.3420000000000023,5459.940488824751,4.643833460188124,3669851.6382788653,279.53272263376215,3149.262303519573,46.186219894647955,2.0865791481155047,0.004363385637477835
3.3820000000000023,5455.496206524371,4.6675376504594075,3667185.229655443,279.5031536201161,3152.5834083866343,46.07985927603288,2.0881684602781427,0.0044096194581432595
3.4220000000000024,5450.285808457434,4.6926266696982974,3664516.384103751,279.47354166181515,3156.090786183614,45.973581942962525,2.089755983549561,0.004455738699144404
3.4620000000000024,5445.690866992103,4.716522549794052,3661844.6413780907,279.4438815850072,3159.4343788801207,45.86737038567391,2.091341991373924,0.004501750314972401
3.5020000000000024,5440.635246410541,4.741510810115212,3659170.3602911797,279.4141773046686,3162.926126951134,45.7612384132685,2.0929262395301484,0.004547649943318206
3.5420000000000025,5435.975152122729,4.765777257563161,3656493.256549676,279.38442559515624,3166.318624290495,45.655175291102445,2.094508889510063,0.004593442063817798
3.5820000000000025,5431.031056158651,4.790772862922769,3653813.5582209397,279.35462892247375,3169.809659553029,45.549189812252024,2.09608978036487,0.00463912412309223
3.6220000000000026,5426.341147696955,4.815341296821461,3651131.0859715203,279.32478522416903,3173.2416781339225,45.44327527345673,2.0976690071133626,0.004684699128769233
3.6620000000000026,5421.479338156237,4.8404047098771805,3648445.9837180916,279.2948960324811,3176.7402703906546,45.337437252391695,2.09924646221818,0.004730165678873607
3.7020000000000026,5416.7820793115925,4.865230590648904,3645758.1389769777,279.2649600264745,3180.2057166533286,45.23167160702432,2.1008221985808495,0.0047755258453341725
3.7420000000000027,5411.983641637434,4.890401903487814,3643067.642094734,279.23497814315266,3183.7173425776277,45.125981877138614,2.102396142562255,0.00482077894940831
3.7820000000000027,5407.293205259488,4.91545722080251,3640374.422915135,279.2049495314565,3187.2123867610753,45.02036553915783,2.103968320549886,0.004865926470042631
3.8220000000000027,5402.650713361851,4.940763185569557,3637678.5378573006,279.1748747508409,3190.312367159367,44.914824848695545,2.105538680320733,0.0049109681787966545
3.8620000000000028,5397.793251060795,4.9665766548827035,3634979.9433923927,279.1447532460085,3192.595383550401,44.809358299078845,2.107107231693036,0.0049559051795887085
